time_dn,ecg_projection_ll_ra_mV,ecg_projection_la_ra_mV,ecg_projection_vx_rl_mV
738506.44099666562397032976,-21.1501663258766,-10.7366405224769,-301.318323313089
738506.44099675607867538929,-21.1593981749931,-10.7181768242439,-301.299859614856
738506.44099684653338044882,-21.1317026276437,-10.6904812768944,-301.327555162206
738506.44099693710450083017,-21.1686300241096,-10.7458723715934,-301.152150028993
738506.44099702755920588970,-21.1409344767602,-10.7181768242439,-301.235236671041
738506.44099711801391094923,-21.1501663258766,-10.7274086733604,-301.318323313089
738506.44099720846861600876,-21.1040070802942,-10.662785729545,-301.336787011322
738506.44099729903973639011,-21.1409344767602,-10.7089449751274,-301.299859614856
738506.44099738949444144964,-21.1224707785272,-10.6812494277779,-301.318323313089
738506.44099747994914650917,-21.1501663258766,-10.7274086733604,-301.346018860439
738506.44099757040385156870,-21.1501663258766,-10.7181768242439,-301.309091463973
738506.44099766097497195005,-21.1132389294107,-10.6720175786615,-301.281395916623
738506.44099775142967700958,-21.1040070802942,-10.6812494277779,-301.327555162206
738506.44099784188438206911,-21.1224707785272,-10.7274086733604,-301.346018860439
738506.44099793233908712864,-21.1224707785272,-10.7089449751274,-301.327555162206
738506.44099802291020750999,-21.0947752311777,-10.6535538804285,-301.336787011322
738506.44099811336491256952,-21.1132389294107,-10.6812494277779,-301.318323313089
738506.44099820381961762905,-21.1040070802942,-10.6720175786615,-301.235236671041
738506.44099829427432268858,-21.1317026276437,-10.7181768242439,-301.235236671041
738506.44099838484544306993,-21.1040070802942,-10.6720175786615,-301.235236671041
738506.44099847530014812946,-21.1132389294107,-10.6720175786615,-301.235236671041
738506.44099856575485318899,-21.0947752311777,-10.6720175786615,-301.226004821925
738506.44099865620955824852,-21.0578478347118,-10.7089449751274,-301.318323313089
738506.44099874678067862988,-21.0209204382458,-10.6350901821955,-301.309091463973
738506.44099883723538368940,-20.9655293435469,-10.6350901821955,-301.26293221839
738506.44099892769008874893,-20.854747154149,-10.5427716910306,-301.336787011322
738506.44099901814479380846,-20.9286019470809,-10.6720175786615,-301.364482558672
738506.44099910871591418982,-20.9009063997314,-10.625858333079,-301.309091463973
738506.44099919917061924934,-21.0578478347118,-10.7181768242439,-301.299859614856
738506.44099928962532430887,-21.2147892696921,-10.8012634662923,-301.318323313089
738506.44099938008002936840,-21.2055574205756,-10.7643360698263,-301.309091463973
738506.44099947065114974976,-21.2240211188086,-10.8474227118748,-301.253700369274
738506.44099956110585480928,-21.1778618732261,-10.7274086733604,-301.309091463973
738506.44099965156055986881,-21.0763115329447,-10.607394634846,-301.244468520157
738506.44099974201526492834,-21.1686300241096,-10.7181768242439,-301.318323313089
738506.44099983258638530970,-21.288644062624,-10.8289590136418,-301.253700369274
738506.44099992304109036922,-21.1963255714591,-10.7089449751274,-301.244468520157
738506.44100001349579542875,-21.1778618732261,-10.7181768242439,-301.235236671041
738506.44100010395050048828,-21.0486159855953,-10.625858333079,-301.281395916623
738506.44100019452162086964,-21.1963255714591,-10.7366405224769,-301.272164067507
738506.44100028497632592916,-21.2794122135075,-10.7920316171758,-301.336787011322
738506.44100037543103098869,-21.288644062624,-10.7643360698263,-301.26293221839
738506.44100046588573604822,-21.1870937223426,-10.625858333079,-301.10599078341
738506.44100055645685642958,-20.836283455916,-10.5427716910306,-301.115222632527
738506.44100064691156148911,-20.3192999053926,-10.6350901821955,-301.207541123691
738506.44100073736626654863,-20.0977355265969,-10.9489730521561,-301.189077425459
738506.44100082782097160816,-21.0301522873623,-11.1243781853694,-301.373714407788
738506.44100091839209198952,-21.6394543290506,-10.9397412030396,-301.44756920072
738506.44100100884679704905,-21.4363536484878,-10.6535538804285,-301.346018860439
738506.44100109930150210857,-21.1778618732261,-10.6535538804285,-301.299859614856
738506.44100118975620716810,-21.1132389294107,-10.6904812768944,-301.336787011322
738506.44100128021091222763,-21.0763115329447,-10.662785729545,-301.355250709555
738506.44100137078203260899,-21.0947752311777,-10.6535538804285,-301.281395916623
738506.44100146123673766851,-20.9747611926634,-10.5243079927976,-301.336787011322
738506.44100155169144272804,-21.0301522873623,-10.5796990874966,-301.327555162206
738506.44100164214614778757,-21.0670796838282,-10.625858333079,-301.318323313089
738506.44100173271726816893,-21.0578478347118,-10.644322031312,-301.327555162206
738506.44100182317197322845,-21.2240211188086,-10.8104953154088,-301.336787011322
738506.44100191362667828798,-21.2240211188086,-10.7735679189428,-301.272164067507
738506.44100200408138334751,-21.1501663258766,-10.7181768242439,-301.235236671041
738506.44100209465250372887,-21.1040070802942,-10.6812494277779,-301.226004821925
738506.44100218510720878839,-21.0670796838282,-10.6535538804285,-301.226004821925
738506.44100227556191384792,-21.0486159855953,-10.6720175786615,-301.198309274575
738506.44100236601661890745,-21.0209204382458,-10.644322031312,-301.272164067507
738506.44100245658773928881,-21.0209204382458,-10.6350901821955,-301.272164067507
738506.44100254704244434834,-20.9932248908963,-10.5889309366131,-301.253700369274
738506.44100263749714940786,-20.9286019470809,-10.5612353892636,-301.216772972808
738506.44100272795185446739,-20.8639790032655,-10.5058442945647,-301.189077425459
738506.44100281852297484875,-20.9378337961974,-10.607394634846,-301.207541123691
738506.44100290897767990828,-21.0024567400128,-10.6720175786615,-301.216772972808
738506.44100299943238496780,-20.9655293435469,-10.6350901821955,-301.189077425459
738506.44100308988709002733,-20.9839930417798,-10.6904812768944,-301.244468520157
738506.44100318045821040869,-20.9470656453139,-10.662785729545,-301.226004821925
738506.44100327091291546822,-20.8639790032655,-10.5520035401471,-301.235236671041
738506.44100336136762052774,-20.8270516067995,-10.5335398419141,-301.170613727226
738506.44100345182232558727,-20.7808923612171,-10.4781487472152,-301.216772972808
738506.44100354239344596863,-20.7439649647511,-10.4689168980987,-301.170613727226
738506.44100363284815102816,-20.7070375682852,-10.4781487472152,-301.161381878109
738506.44100372330285608768,-20.6793420209357,-10.4596850489822,-301.13368633076
738506.44100381375756114721,-20.6516464735862,-10.4873805963317,-301.161381878109
738506.44100390432868152857,-20.6608783227027,-10.4689168980987,-301.179845576342
738506.44100399478338658810,-20.6701101718192,-10.4781487472152,-301.078295236061
738506.44100408523809164762,-20.7808923612171,-10.5520035401471,-301.087527085177
738506.44100417569279670715,-20.854747154149,-10.5335398419141,-301.244468520157
738506.44100426626391708851,-20.9470656453139,-10.607394634846,-301.216772972808
738506.44100435671862214804,-20.9932248908963,-10.6166264839625,-301.253700369274
738506.44100444717332720757,-21.0763115329447,-10.6904812768944,-301.216772972808
738506.44100453762803226709,-21.1132389294107,-10.7089449751274,-301.29062776574
738506.44100462819915264845,-21.1501663258766,-10.7181768242439,-301.309091463973
738506.44100471865385770798,-21.1317026276437,-10.6812494277779,-301.336787011322
738506.44100480910856276751,-21.1501663258766,-10.6997131260109,-301.299859614856
738506.44100489956326782703,-21.1778618732261,-10.7274086733604,-301.281395916623
738506.44100499013438820839,-21.1686300241096,-10.7089449751274,-301.244468520157
738506.44100508058909326792,-21.1778618732261,-10.7181768242439,-301.309091463973
738506.44100517104379832745,-21.1501663258766,-10.6997131260109,-301.327555162206
738506.44100526149850338697,-21.1686300241096,-10.7181768242439,-301.336787011322
738506.44100535206962376833,-21.1593981749931,-10.6812494277779,-301.281395916623
738506.44100544252432882786,-21.1686300241096,-10.7181768242439,-301.346018860439
738506.44100553297903388739,-21.1409344767602,-10.7089449751274,-301.299859614856
738506.44100562343373894691,-21.1593981749931,-10.7181768242439,-301.29062776574
738506.44100571400485932827,-21.1317026276437,-10.6997131260109,-301.318323313089
738506.44100580445956438780,-21.1501663258766,-10.7181768242439,-301.327555162206
738506.44100589491426944733,-21.1409344767602,-10.6904812768944,-301.346018860439
738506.44100598536897450686,-21.1593981749931,-10.7181768242439,-301.327555162206
738506.44100607594009488821,-21.1317026276437,-10.6904812768944,-301.299859614856
738506.44100616639479994774,-21.1501663258766,-10.7181768242439,-301.309091463973
738506.44100625684950500727,-21.1409344767602,-10.7089449751274,-301.29062776574
738506.44100634730421006680,-21.1409344767602,-10.7181768242439,-301.346018860439
738506.44100643787533044815,-21.1501663258766,-10.6904812768944,-301.327555162206
738506.44100652833003550768,-21.1501663258766,-10.7089449751274,-301.281395916623
738506.44100661878474056721,-21.1409344767602,-10.6812494277779,-301.327555162206
738506.44100670923944562674,-21.1409344767602,-10.6997131260109,-301.327555162206
738506.44100679981056600809,-21.1501663258766,-10.6997131260109,-301.299859614856
738506.44100689026527106762,-21.1409344767602,-10.6904812768944,-301.318323313089
738506.44100698071997612715,-21.1686300241096,-10.7274086733604,-301.364482558672
738506.44100707117468118668,-21.1593981749931,-10.6812494277779,-301.346018860439
738506.44100716174580156803,-21.1778618732261,-10.7089449751274,-301.336787011322
738506.44100725220050662756,-21.1593981749931,-10.6997131260109,-301.346018860439
738506.44100734265521168709,-21.1778618732261,-10.7181768242439,-301.309091463973
738506.44100743310991674662,-21.1593981749931,-10.6904812768944,-301.318323313089
738506.44100752368103712797,-21.1593981749931,-10.7089449751274,-301.281395916623
738506.44100761413574218750,-21.1778618732261,-10.7181768242439,-301.216772972808
738506.44100770459044724703,-21.1870937223426,-10.7366405224769,-301.29062776574
738506.44100779504515230656,-21.1593981749931,-10.6904812768944,-301.309091463973
738506.44100788561627268791,-21.1963255714591,-10.7274086733604,-301.161381878109
738506.44100797607097774744,-21.1870937223426,-10.7089449751274,-301.207541123691
738506.44100806652568280697,-21.1963255714591,-10.7458723715934,-301.244468520157
738506.44100815698038786650,-21.1870937223426,-10.7366405224769,-301.281395916623
738506.44100824755150824785,-21.1870937223426,-10.7181768242439,-301.272164067507
738506.44100833800621330738,-21.1870937223426,-10.7181768242439,-301.253700369274
738506.44100842846091836691,-21.1778618732261,-10.7274086733604,-301.253700369274
738506.44100851891562342644,-21.1870937223426,-10.7181768242439,-301.26293221839
738506.44100860948674380779,-21.1870937223426,-10.7181768242439,-301.318323313089
738506.44100869994144886732,-21.1963255714591,-10.7366405224769,-301.26293221839
738506.44100879039615392685,-21.1963255714591,-10.7181768242439,-301.29062776574
738506.44100888085085898638,-21.1963255714591,-10.7458723715934,-301.299859614856
738506.44100897130556404591,-21.1778618732261,-10.7089449751274,-301.26293221839
738506.44100906187668442726,-21.1870937223426,-10.7458723715934,-301.29062776574
738506.44100915233138948679,-21.1778618732261,-10.7366405224769,-301.272164067507
738506.44100924278609454632,-21.1870937223426,-10.7089449751274,-301.244468520157
738506.44100933324079960585,-21.1963255714591,-10.7181768242439,-301.318323313089
738506.44100942381191998720,-21.1778618732261,-10.7274086733604,-301.327555162206
738506.44100951426662504673,-21.1963255714591,-10.7181768242439,-301.346018860439
738506.44100960472133010626,-21.1778618732261,-10.7181768242439,-301.327555162206
738506.44100969517603516579,-21.1686300241096,-10.7366405224769,-301.336787011322
738506.44100978574715554714,-21.1224707785272,-10.6812494277779,-301.318323313089
738506.44100987620186060667,-21.0947752311777,-10.7181768242439,-301.299859614856
738506.44100996665656566620,-21.0393841364788,-10.6997131260109,-301.346018860439
738506.44101005711127072573,-21.0301522873623,-10.6904812768944,-301.382946256905
738506.44101014768239110708,-21.0301522873623,-10.6812494277779,-301.29062776574
738506.44101023813709616661,-21.0486159855953,-10.6997131260109,-301.318323313089
738506.44101032859180122614,-21.0855433820612,-10.7181768242439,-301.336787011322
738506.44101041904650628567,-21.1317026276437,-10.7551042207099,-301.281395916623
738506.44101050961762666702,-21.1501663258766,-10.6997131260109,-301.346018860439
738506.44101060007233172655,-21.1778618732261,-10.7181768242439,-301.346018860439
738506.44101069052703678608,-21.2147892696921,-10.7366405224769,-301.373714407788
738506.44101078098174184561,-21.2147892696921,-10.7366405224769,-301.299859614856
738506.44101087155286222696,-21.2147892696921,-10.7274086733604,-301.382946256905
738506.44101096200756728649,-21.2055574205756,-10.7089449751274,-301.364482558672
738506.44101105246227234602,-21.2240211188086,-10.7551042207099,-301.226004821925
738506.44101114291697740555,-21.1686300241096,-10.6997131260109,-301.216772972808
738506.44101123348809778690,-21.2240211188086,-10.7551042207099,-301.309091463973
738506.44101132394280284643,-21.1963255714591,-10.7089449751274,-301.309091463973
738506.44101141439750790596,-21.2609485152745,-10.7643360698263,-301.272164067507
738506.44101150485221296549,-21.288644062624,-10.7366405224769,-301.235236671041
738506.44101159542333334684,-21.1224707785272,-10.644322031312,-301.142918179876
738506.44101168587803840637,-20.7716605121006,-10.5889309366131,-301.142918179876
738506.44101177633274346590,-20.3377636036256,-10.7181768242439,-301.087527085177
738506.44101186678744852543,-20.1715903195288,-10.9305093539232,-301.13368633076
738506.44101195735856890678,-21.3255714590899,-11.041291543321,-301.318323313089
738506.44101204781327396631,-21.6671498764,-10.9028138065737,-301.382946256905
738506.44101213826797902584,-21.4732810449538,-10.7181768242439,-301.29062776574
738506.44101222872268408537,-21.1501663258766,-10.625858333079,-301.281395916623
738506.44101231929380446672,-21.1224707785272,-10.7551042207099,-301.26293221839
738506.44101240974850952625,-21.1409344767602,-10.7089449751274,-301.281395916623
738506.44101250020321458578,-21.1501663258766,-10.662785729545,-301.244468520157
738506.44101259065791964531,-21.1501663258766,-10.6904812768944,-301.244468520157
738506.44101268122904002666,-21.1224707785272,-10.6720175786615,-301.253700369274
738506.44101277168374508619,-21.1409344767602,-10.6812494277779,-301.309091463973
738506.44101286213845014572,-21.1224707785272,-10.7181768242439,-301.253700369274
738506.44101295259315520525,-21.1317026276437,-10.7181768242439,-301.253700369274
738506.44101304316427558661,-21.0855433820612,-10.6350901821955,-301.272164067507
738506.44101313361898064613,-21.1132389294107,-10.662785729545,-301.235236671041
738506.44101322407368570566,-21.0763115329447,-10.6720175786615,-301.235236671041
738506.44101331452839076519,-21.0947752311777,-10.6997131260109,-301.216772972808
738506.44101340509951114655,-21.0578478347118,-10.6997131260109,-301.216772972808
738506.44101349555421620607,-21.0763115329447,-10.6812494277779,-301.207541123691
738506.44101358600892126560,-21.0393841364788,-10.625858333079,-301.235236671041
738506.44101367646362632513,-21.0393841364788,-10.6720175786615,-301.272164067507
738506.44101376703474670649,-21.0209204382458,-10.644322031312,-301.29062776574
738506.44101385748945176601,-20.9839930417798,-10.644322031312,-301.226004821925
738506.44101394794415682554,-20.9655293435469,-10.6350901821955,-301.272164067507
738506.44101403839886188507,-20.9562974944304,-10.5981627857295,-301.235236671041
738506.44101412896998226643,-20.9655293435469,-10.6535538804285,-301.216772972808
738506.44101421942468732595,-20.9101382488479,-10.5889309366131,-301.26293221839
738506.44101430987939238548,-20.9193700979644,-10.6166264839625,-301.26293221839
738506.44101440033409744501,-20.8824427014985,-10.607394634846,-301.272164067507
738506.44101449090521782637,-20.873210852382,-10.6350901821955,-301.198309274575
738506.44101458135992288589,-20.7901242103336,-10.5058442945647,-301.189077425459
738506.44101467181462794542,-20.8085879085665,-10.5427716910306,-301.096758934294
738506.44101476226933300495,-20.7531968138676,-10.5243079927976,-301.198309274575
738506.44101485284045338631,-20.7070375682852,-10.4781487472152,-301.226004821925
738506.44101494329515844584,-20.7347331156346,-10.4873805963317,-301.216772972808
738506.44101503374986350536,-20.7531968138676,-10.5243079927976,-301.244468520157
738506.44101512420456856489,-20.7624286629841,-10.5335398419141,-301.170613727226
738506.44101521477568894625,-20.8085879085665,-10.5612353892636,-301.235236671041
738506.44101530523039400578,-20.8916745506149,-10.5704672383801,-301.281395916623
738506.44101539568509906530,-20.9655293435469,-10.6166264839625,-301.253700369274
738506.44101548613980412483,-21.0209204382458,-10.6535538804285,-301.29062776574
738506.44101557671092450619,-21.0486159855953,-10.662785729545,-301.29062776574
738506.44101566716562956572,-21.0763115329447,-10.6812494277779,-301.281395916623
738506.44101575762033462524,-21.0670796838282,-10.644322031312,-301.299859614856
738506.44101584807503968477,-21.1132389294107,-10.7181768242439,-301.29062776574
738506.44101593864616006613,-21.1317026276437,-10.7089449751274,-301.198309274575
738506.44101602910086512566,-21.1501663258766,-10.7551042207099,-301.253700369274
738506.44101611955557018518,-21.1132389294107,-10.6720175786615,-301.226004821925
738506.44101621001027524471,-21.1317026276437,-10.6997131260109,-301.244468520157
738506.44101630058139562607,-21.1132389294107,-10.6720175786615,-301.253700369274
738506.44101639103610068560,-21.1224707785272,-10.6904812768944,-301.26293221839
738506.44101648149080574512,-21.0855433820612,-10.6812494277779,-301.253700369274
738506.44101657194551080465,-21.0763115329447,-10.6812494277779,-301.253700369274
738506.44101666240021586418,-21.0855433820612,-10.6997131260109,-301.272164067507
738506.44101675297133624554,-21.1132389294107,-10.6997131260109,-301.244468520157
738506.44101684342604130507,-21.1040070802942,-10.6904812768944,-301.253700369274
738506.44101693388074636459,-21.0670796838282,-10.6535538804285,-301.253700369274
738506.44101702433545142412,-21.0947752311777,-10.6812494277779,-301.253700369274
738506.44101711490657180548,-21.0670796838282,-10.6720175786615,-301.235236671041
738506.44101720536127686501,-21.0670796838282,-10.6812494277779,-301.216772972808
738506.44101729581598192453,-21.0855433820612,-10.6535538804285,-301.226004821925
738506.44101738627068698406,-21.0855433820612,-10.6904812768944,-301.216772972808
738506.44101747684180736542,-21.0763115329447,-10.644322031312,-301.26293221839
738506.44101756729651242495,-21.1040070802942,-10.6812494277779,-301.253700369274
738506.44101765775121748447,-21.0763115329447,-10.6535538804285,-301.309091463973
738506.44101774820592254400,-21.1132389294107,-10.6812494277779,-301.299859614856
738506.44101783877704292536,-21.0855433820612,-10.662785729545,-301.299859614856
738506.44101792923174798489,-21.1040070802942,-10.6720175786615,-301.299859614856
738506.44101801968645304441,-21.0947752311777,-10.6904812768944,-301.346018860439
738506.44101811014115810394,-21.1040070802942,-10.6904812768944,-301.309091463973
738506.44101820071227848530,-21.1132389294107,-10.644322031312,-301.13368633076
738506.44101829116698354483,-21.0670796838282,-10.6166264839625,-301.29062776574
738506.44101838162168860435,-21.1132389294107,-10.6812494277779,-301.29062776574
738506.44101847207639366388,-21.0763115329447,-10.644322031312,-301.309091463973
738506.44101856264751404524,-21.1224707785272,-10.6904812768944,-301.336787011322
738506.44101865310221910477,-21.1040070802942,-10.625858333079,-301.327555162206
738506.44101874355692416430,-21.1224707785272,-10.6812494277779,-301.336787011322
738506.44101883401162922382,-21.1224707785272,-10.6535538804285,-301.272164067507
738506.44101892458274960518,-21.1224707785272,-10.6812494277779,-301.309091463973
738506.44101901503745466471,-21.0947752311777,-10.6535538804285,-301.318323313089
738506.44101910549215972424,-21.1317026276437,-10.6812494277779,-301.244468520157
738506.44101919594686478376,-21.1132389294107,-10.6720175786615,-301.318323313089
738506.44101928651798516512,-21.1224707785272,-10.6812494277779,-301.309091463973
738506.44101937697269022465,-21.1040070802942,-10.6535538804285,-301.26293221839
738506.44101946742739528418,-21.1317026276437,-10.6904812768944,-301.309091463973
738506.44101955788210034370,-21.1040070802942,-10.6720175786615,-301.309091463973
738506.44101964845322072506,-21.1132389294107,-10.6997131260109,-301.336787011322
738506.44101973890792578459,-21.0947752311777,-10.662785729545,-301.244468520157
738506.44101982936263084412,-21.1132389294107,-10.6535538804285,-301.299859614856
738506.44101991981733590364,-21.0947752311777,-10.6720175786615,-301.318323313089
738506.44102001038845628500,-21.0578478347118,-10.644322031312,-301.318323313089
738506.44102010084316134453,-21.0855433820612,-10.6812494277779,-301.253700369274
738506.44102019129786640406,-21.0209204382458,-10.6350901821955,-301.29062776574
738506.44102028175257146358,-20.9932248908963,-10.6535538804285,-301.346018860439
738506.44102037232369184494,-20.9193700979644,-10.625858333079,-301.235236671041
738506.44102046277839690447,-20.9655293435469,-10.6812494277779,-301.299859614856
738506.44102055323310196400,-20.9562974944304,-10.6535538804285,-301.318323313089
738506.44102064368780702353,-20.9193700979644,-10.607394634846,-301.253700369274
738506.44102073425892740488,-20.9286019470809,-10.625858333079,-301.272164067507
738506.44102082471363246441,-21.0578478347118,-10.662785729545,-301.216772972808
738506.44102091516833752394,-21.1040070802942,-10.6997131260109,-301.26293221839
738506.44102100562304258347,-21.1224707785272,-10.6997131260109,-301.318323313089
738506.44102109619416296482,-21.1040070802942,-10.7089449751274,-301.327555162206
738506.44102118664886802435,-21.1224707785272,-10.6997131260109,-301.309091463973
738506.44102127710357308388,-21.1501663258766,-10.7274086733604,-301.29062776574
738506.44102136755827814341,-21.1317026276437,-10.6812494277779,-301.299859614856
738506.44102145812939852476,-21.1409344767602,-10.7181768242439,-301.253700369274
738506.44102154858410358429,-21.1040070802942,-10.6997131260109,-301.198309274575
738506.44102163903880864382,-21.1040070802942,-10.7089449751274,-301.041367839595
738506.44102172949351370335,-21.0947752311777,-10.6997131260109,-301.152150028993
738506.44102182006463408470,-21.1409344767602,-10.6904812768944,-301.216772972808
738506.44102191051933914423,-21.1317026276437,-10.6350901821955,-301.207541123691
738506.44102200097404420376,-20.9470656453139,-10.5704672383801,-301.152150028993
738506.44102209142874926329,-20.5039368877224,-10.5058442945647,-301.124454481643
738506.44102218199986964464,-20.1346629230628,-10.6997131260109,-301.189077425459
738506.44102227245457470417,-20.1808221686453,-11.0505233924375,-301.253700369274
738506.44102236290927976370,-21.3717307046724,-11.0689870906705,-301.456801049837
738506.44102245336398482323,-21.5471358378857,-10.8935819574572,-301.392178106021
738506.44102254393510520458,-21.2240211188086,-10.644322031312,-301.327555162206
738506.44102263438981026411,-20.9932248908963,-10.6350901821955,-301.235236671041
738506.44102272484451532364,-20.9193700979644,-10.6350901821955,-301.272164067507
738506.44102281529922038317,-20.9378337961974,-10.6535538804285,-301.29062776574
738506.44102290587034076452,-20.9193700979644,-10.644322031312,-301.207541123691
738506.44102299632504582405,-20.9470656453139,-10.644322031312,-301.272164067507
738506.44102308677975088358,-20.9286019470809,-10.6350901821955,-301.29062776574
738506.44102317723445594311,-20.9378337961974,-10.6535538804285,-301.253700369274
738506.44102326780557632446,-20.9009063997314,-10.625858333079,-301.26293221839
738506.44102335826028138399,-20.9009063997314,-10.625858333079,-301.272164067507
738506.44102344871498644352,-20.9193700979644,-10.644322031312,-301.29062776574
738506.44102353916969150305,-20.9378337961974,-10.662785729545,-301.244468520157
738506.44102362974081188440,-20.8916745506149,-10.6166264839625,-301.29062776574
738506.44102372019551694393,-20.8916745506149,-10.625858333079,-301.309091463973
738506.44102381065022200346,-20.873210852382,-10.644322031312,-301.235236671041
738506.44102390110492706299,-20.854747154149,-10.607394634846,-301.26293221839
738506.44102399167604744434,-20.8455153050325,-10.6166264839625,-301.198309274575
738506.44102408213075250387,-20.8270516067995,-10.5889309366131,-301.207541123691
738506.44102417258545756340,-20.836283455916,-10.6166264839625,-301.226004821925
738506.44102426304016262293,-20.8085879085665,-10.5612353892636,-301.198309274575
738506.44102435361128300428,-20.7993560594501,-10.5889309366131,-301.115222632527
738506.44102444406598806381,-20.7716605121006,-10.5704672383801,-301.253700369274
738506.44102453452069312334,-20.7531968138676,-10.5612353892636,-301.235236671041
738506.44102462497539818287,-20.7070375682852,-10.5335398419141,-301.253700369274
738506.44102471543010324240,-20.7070375682852,-10.5150761436811,-301.198309274575
738506.44102480600122362375,-20.6608783227027,-10.4873805963317,-301.253700369274
738506.44102489645592868328,-20.6331827753533,-10.4781487472152,-301.26293221839
738506.44102498691063374281,-20.6239509262368,-10.4596850489822,-301.152150028993
738506.44102507736533880234,-20.6331827753533,-10.5058442945647,-301.179845576342
738506.44102516793645918369,-20.5870235297708,-10.4504531998657,-300.985976744896
738506.44102525839116424322,-20.5962553788873,-10.4781487472152,-301.032135990478
738506.44102534884586930275,-20.5962553788873,-10.4596850489822,-301.142918179876
738506.44102543930057436228,-20.6239509262368,-10.4596850489822,-301.152150028993
738506.44102552987169474363,-20.6885738700522,-10.4966124454482,-301.152150028993
738506.44102562032639980316,-20.7255012665181,-10.5243079927976,-301.170613727226
738506.44102571078110486269,-20.7993560594501,-10.607394634846,-301.226004821925
738506.44102580123580992222,-20.854747154149,-10.5796990874966,-301.272164067507
738506.44102589180693030357,-20.9378337961974,-10.625858333079,-301.299859614856
738506.44102598226163536310,-20.9562974944304,-10.644322031312,-301.235236671041
738506.44102607271634042263,-21.0024567400128,-10.6720175786615,-301.336787011322
738506.44102616317104548216,-21.0024567400128,-10.6350901821955,-301.336787011322
738506.44102625374216586351,-21.0301522873623,-10.6720175786615,-301.226004821925
738506.44102634419687092304,-21.0116885891293,-10.662785729545,-301.299859614856
738506.44102643465157598257,-21.0301522873623,-10.662785729545,-301.29062776574
738506.44102652510628104210,-21.0209204382458,-10.662785729545,-301.281395916623
738506.44102661567740142345,-21.0209204382458,-10.662785729545,-301.29062776574
738506.44102670613210648298,-21.0209204382458,-10.6812494277779,-301.299859614856
738506.44102679658681154251,-21.0393841364788,-10.6720175786615,-301.29062776574
738506.44102688704151660204,-21.0209204382458,-10.6812494277779,-301.253700369274
738506.44102697761263698339,-21.0116885891293,-10.6997131260109,-301.29062776574
738506.44102706806734204292,-21.0116885891293,-10.6535538804285,-301.281395916623
738506.44102715852204710245,-21.0116885891293,-10.6535538804285,-301.244468520157
738506.44102724897675216198,-21.0116885891293,-10.6720175786615,-301.29062776574
738506.44102733954787254333,-21.0116885891293,-10.6535538804285,-301.29062776574
738506.44102743000257760286,-21.0209204382458,-10.6720175786615,-301.281395916623
738506.44102752045728266239,-21.0116885891293,-10.6535538804285,-301.29062776574
738506.44102761091198772192,-21.0301522873623,-10.6720175786615,-301.29062776574
738506.44102770148310810328,-21.0209204382458,-10.6720175786615,-301.29062776574
738506.44102779193781316280,-21.0301522873623,-10.6720175786615,-301.179845576342
738506.44102788239251822233,-21.0393841364788,-10.6720175786615,-301.29062776574
738506.44102797284722328186,-21.0486159855953,-10.6812494277779,-301.281395916623
738506.44102806341834366322,-21.0486159855953,-10.6720175786615,-301.281395916623
738506.44102815387304872274,-21.0486159855953,-10.6535538804285,-301.29062776574
738506.44102824432775378227,-21.0578478347118,-10.6720175786615,-301.29062776574
738506.44102833478245884180,-21.0670796838282,-10.6720175786615,-301.281395916623
738506.44102842535357922316,-21.0578478347118,-10.6904812768944,-301.26293221839
738506.44102851580828428268,-21.0763115329447,-10.6904812768944,-301.299859614856
738506.44102860626298934221,-21.0763115329447,-10.6720175786615,-301.29062776574
738506.44102869671769440174,-21.0763115329447,-10.662785729545,-301.142918179876
738506.44102878728881478310,-21.0947752311777,-10.6997131260109,-301.207541123691
738506.44102887774351984262,-21.0763115329447,-10.6720175786615,-301.29062776574
738506.44102896819822490215,-21.0947752311777,-10.7089449751274,-301.29062776574
738506.44102905865292996168,-21.0855433820612,-10.6812494277779,-301.29062776574
738506.44102914922405034304,-21.0947752311777,-10.6904812768944,-301.29062776574
738506.44102923967875540257,-21.0855433820612,-10.6720175786615,-301.253700369274
738506.44102933013346046209,-21.0855433820612,-10.6720175786615,-301.207541123691
738506.44102942058816552162,-21.0947752311777,-10.6904812768944,-301.198309274575
738506.44102951115928590298,-21.0947752311777,-10.6904812768944,-301.244468520157
738506.44102960161399096251,-21.1040070802942,-10.6904812768944,-301.244468520157
738506.44102969206869602203,-21.0947752311777,-10.6720175786615,-301.226004821925
738506.44102978252340108156,-21.1040070802942,-10.6904812768944,-301.216772972808
738506.44102987309452146292,-21.0947752311777,-10.6812494277779,-301.272164067507
738506.44102996354922652245,-21.1040070802942,-10.6997131260109,-301.281395916623
738506.44103005400393158197,-21.0947752311777,-10.6904812768944,-301.272164067507
738506.44103014445863664150,-21.1224707785272,-10.6997131260109,-301.253700369274
738506.44103023502975702286,-21.1040070802942,-10.6812494277779,-301.309091463973
738506.44103032548446208239,-21.1224707785272,-10.6997131260109,-301.355250709555
738506.44103041593916714191,-21.1040070802942,-10.7089449751274,-301.355250709555
738506.44103050639387220144,-21.1224707785272,-10.6997131260109,-301.281395916623
738506.44103059696499258280,-21.1040070802942,-10.6812494277779,-301.318323313089
738506.44103068741969764233,-21.1224707785272,-10.6812494277779,-301.346018860439
738506.44103077787440270185,-21.0855433820612,-10.6720175786615,-301.29062776574
738506.44103086832910776138,-21.0670796838282,-10.6904812768944,-301.327555162206
738506.44103095890022814274,-21.0116885891293,-10.662785729545,-301.355250709555
738506.44103104935493320227,-20.9839930417798,-10.6904812768944,-301.299859614856
738506.44103113980963826180,-20.9655293435469,-10.6812494277779,-301.318323313089
738506.44103123026434332132,-20.9747611926634,-10.662785729545,-301.336787011322
738506.44103132083546370268,-20.9839930417798,-10.6812494277779,-301.309091463973
738506.44103141129016876221,-21.0024567400128,-10.6535538804285,-301.235236671041
738506.44103150174487382174,-21.0301522873623,-10.662785729545,-301.299859614856
738506.44103159219957888126,-21.0763115329447,-10.6720175786615,-301.299859614856
738506.44103168277069926262,-21.1501663258766,-10.7089449751274,-301.253700369274
738506.44103177322540432215,-21.1593981749931,-10.6904812768944,-301.327555162206
738506.44103186368010938168,-21.1870937223426,-10.7274086733604,-301.309091463973
738506.44103195413481444120,-21.1778618732261,-10.6997131260109,-301.309091463973
738506.44103204470593482256,-21.1870937223426,-10.6997131260109,-301.299859614856
738506.44103213516063988209,-21.1686300241096,-10.6812494277779,-301.309091463973
738506.44103222561534494162,-21.1870937223426,-10.7089449751274,-301.189077425459
738506.44103231607005000114,-21.1778618732261,-10.7181768242439,-301.207541123691
738506.44103240652475506067,-21.1870937223426,-10.7089449751274,-301.299859614856
738506.44103249709587544203,-21.1686300241096,-10.6812494277779,-301.299859614856
738506.44103258755058050156,-21.1963255714591,-10.662785729545,-301.272164067507
738506.44103267800528556108,-21.1778618732261,-10.6166264839625,-301.299859614856
738506.44103276845999062061,-20.873210852382,-10.5612353892636,-301.235236671041
738506.44103285903111100197,-20.3746910000916,-10.5612353892636,-301.124454481643
738506.44103294948581606150,-20.0885036774804,-10.8474227118748,-301.235236671041
738506.44103303994052112103,-20.6424146244697,-11.0135959959716,-301.226004821925
738506.44103313039522618055,-21.288644062624,-10.9951322977386,-301.364482558672
738506.44103322096634656191,-21.6394543290506,-10.8289590136418,-301.253700369274
738506.44103331142105162144,-21.3255714590899,-10.644322031312,-301.318323313089
738506.44103340187575668097,-21.0763115329447,-10.6535538804285,-301.244468520157
738506.44103349233046174049,-21.0670796838282,-10.6812494277779,-301.299859614856
738506.44103358290158212185,-21.0947752311777,-10.6904812768944,-301.216772972808
738506.44103367335628718138,-21.0855433820612,-10.6812494277779,-301.235236671041
738506.44103376381099224091,-21.0947752311777,-10.662785729545,-301.272164067507
738506.44103385426569730043,-21.0763115329447,-10.6812494277779,-301.272164067507
738506.44103394483681768179,-21.0855433820612,-10.6535538804285,-301.26293221839
738506.44103403529152274132,-21.0670796838282,-10.6535538804285,-301.253700369274
738506.44103412574622780085,-21.0670796838282,-10.662785729545,-301.272164067507
738506.44103421620093286037,-21.0486159855953,-10.6535538804285,-301.253700369274
738506.44103430677205324173,-21.0301522873623,-10.6535538804285,-301.318323313089
738506.44103439722675830126,-21.0209204382458,-10.6535538804285,-301.244468520157
738506.44103448768146336079,-20.9932248908963,-10.6720175786615,-301.281395916623
738506.44103457813616842031,-20.9932248908963,-10.644322031312,-301.281395916623
738506.44103466870728880167,-20.9747611926634,-10.5981627857295,-301.244468520157
738506.44103475916199386120,-20.9562974944304,-10.644322031312,-301.235236671041
738506.44103484961669892073,-20.9286019470809,-10.6166264839625,-301.244468520157
738506.44103494007140398026,-20.9286019470809,-10.6166264839625,-301.272164067507
738506.44103503064252436161,-20.9101382488479,-10.5889309366131,-301.318323313089
738506.44103512109722942114,-20.8916745506149,-10.607394634846,-301.309091463973
738506.44103521155193448067,-20.8639790032655,-10.5981627857295,-301.281395916623
738506.44103530200663954020,-20.8455153050325,-10.5796990874966,-301.29062776574
738506.44103539257775992155,-20.8085879085665,-10.5612353892636,-301.26293221839
738506.44103548303246498108,-20.7808923612171,-10.5612353892636,-301.226004821925
738506.44103557348717004061,-20.7439649647511,-10.5335398419141,-301.26293221839
738506.44103566394187510014,-20.6978057191687,-10.4966124454482,-301.281395916623
738506.44103575451299548149,-20.6701101718192,-10.4966124454482,-301.059831537828
738506.44103584496770054102,-20.6239509262368,-10.4873805963317,-301.13368633076
738506.44103593542240560055,-20.5962553788873,-10.4966124454482,-301.235236671041
738506.44103602587711066008,-20.5685598315378,-10.4781487472152,-301.115222632527
738506.44103611644823104143,-20.5685598315378,-10.4873805963317,-301.142918179876
738506.44103620690293610096,-20.5870235297708,-10.4873805963317,-301.161381878109
738506.44103629735764116049,-20.6608783227027,-10.5335398419141,-301.161381878109
738506.44103638781234622002,-20.7439649647511,-10.5520035401471,-301.207541123691
738506.44103647838346660137,-20.854747154149,-10.6166264839625,-301.281395916623
738506.44103656883817166090,-20.9193700979644,-10.6535538804285,-301.327555162206
738506.44103665929287672043,-21.0024567400128,-10.6535538804285,-301.235236671041
738506.44103674974758177996,-21.0301522873623,-10.662785729545,-301.336787011322
738506.44103684031870216131,-21.0486159855953,-10.6904812768944,-301.327555162206
738506.44103693077340722084,-21.0763115329447,-10.6904812768944,-301.327555162206
738506.44103702122811228037,-21.0855433820612,-10.6904812768944,-301.299859614856
738506.44103711168281733990,-21.1040070802942,-10.6812494277779,-301.346018860439
738506.44103720225393772125,-21.0947752311777,-10.6812494277779,-301.364482558672
738506.44103729270864278078,-21.1040070802942,-10.6904812768944,-301.253700369274
738506.44103738316334784031,-21.1040070802942,-10.6812494277779,-301.355250709555
738506.44103747361805289984,-21.1224707785272,-10.7181768242439,-301.336787011322
738506.44103756418917328119,-21.1040070802942,-10.6720175786615,-301.318323313089
738506.44103765464387834072,-21.1132389294107,-10.7089449751274,-301.26293221839
738506.44103774509858340025,-21.0947752311777,-10.6904812768944,-301.281395916623
738506.44103783555328845978,-21.1132389294107,-10.7181768242439,-301.244468520157
738506.44103792612440884113,-21.0947752311777,-10.6720175786615,-301.272164067507
738506.44103801657911390066,-21.0947752311777,-10.6997131260109,-301.309091463973
738506.44103810703381896019,-21.0855433820612,-10.6904812768944,-301.281395916623
738506.44103819748852401972,-21.1132389294107,-10.7089449751274,-301.272164067507
738506.44103828805964440107,-21.1040070802942,-10.7089449751274,-301.346018860439
738506.44103837851434946060,-21.1132389294107,-10.7274086733604,-301.253700369274
738506.44103846896905452013,-21.1040070802942,-10.6720175786615,-301.26293221839
738506.44103855942375957966,-21.1132389294107,-10.6904812768944,-301.318323313089
738506.44103864999487996101,-21.1132389294107,-10.7089449751274,-301.253700369274
738506.44103874044958502054,-21.1132389294107,-10.6997131260109,-301.281395916623
738506.44103883090429008007,-21.1409344767602,-10.7089449751274,-301.355250709555
738506.44103892135899513960,-21.1224707785272,-10.6997131260109,-301.309091463973
738506.44103901193011552095,-21.1501663258766,-10.7274086733604,-301.299859614856
738506.44103910238482058048,-21.1409344767602,-10.6812494277779,-301.299859614856
738506.44103919283952564001,-21.1501663258766,-10.7181768242439,-301.309091463973
738506.44103928329423069954,-21.1317026276437,-10.7181768242439,-301.198309274575
738506.44103937386535108089,-21.1501663258766,-10.7089449751274,-301.13368633076
738506.44103946432005614042,-21.1501663258766,-10.7089449751274,-301.272164067507
738506.44103955477476119995,-21.1593981749931,-10.7274086733604,-301.272164067507
738506.44103964522946625948,-21.1501663258766,-10.7181768242439,-301.281395916623
738506.44103973580058664083,-21.1686300241096,-10.6997131260109,-301.318323313089
738506.44103982625529170036,-21.1501663258766,-10.7089449751274,-301.382946256905
738506.44103991670999675989,-21.1593981749931,-10.7089449751274,-301.336787011322
738506.44104000716470181942,-21.1501663258766,-10.7089449751274,-301.318323313089
738506.44104009761940687895,-21.1593981749931,-10.7274086733604,-301.346018860439
738506.44104018819052726030,-21.1686300241096,-10.7089449751274,-301.327555162206
738506.44104027864523231983,-21.1593981749931,-10.6997131260109,-301.327555162206
738506.44104036909993737936,-21.1686300241096,-10.7274086733604,-301.336787011322
738506.44104045955464243889,-21.1686300241096,-10.7089449751274,-301.346018860439
738506.44104055012576282024,-21.1778618732261,-10.7181768242439,-301.318323313089
738506.44104064058046787977,-21.1686300241096,-10.7181768242439,-301.364482558672
738506.44104073103517293930,-21.1778618732261,-10.7274086733604,-301.355250709555
738506.44104082148987799883,-21.1686300241096,-10.7089449751274,-301.355250709555
738506.44104091206099838018,-21.1778618732261,-10.7181768242439,-301.327555162206
738506.44104100251570343971,-21.1778618732261,-10.6904812768944,-301.327555162206
738506.44104109297040849924,-21.1778618732261,-10.7181768242439,-301.244468520157
738506.44104118342511355877,-21.1778618732261,-10.7181768242439,-301.309091463973
738506.44104127399623394012,-21.1778618732261,-10.7089449751274,-301.299859614856
738506.44104136445093899965,-21.1870937223426,-10.7274086733604,-301.373714407788
738506.44104145490564405918,-21.1778618732261,-10.7274086733604,-301.373714407788
738506.44104154536034911871,-21.1501663258766,-10.7089449751274,-301.253700369274
738506.44104163593146950006,-21.1040070802942,-10.6812494277779,-301.336787011322
738506.44104172638617455959,-21.0947752311777,-10.7089449751274,-301.355250709555
738506.44104181684087961912,-21.0301522873623,-10.6812494277779,-301.336787011322
738506.44104190729558467865,-21.0301522873623,-10.6997131260109,-301.336787011322
738506.44104199786670506001,-21.0301522873623,-10.662785729545,-301.401409955138
738506.44104208832141011953,-21.0486159855953,-10.6720175786615,-301.336787011322
738506.44104217877611517906,-21.0578478347118,-10.6904812768944,-301.309091463973
738506.44104226923082023859,-21.1040070802942,-10.6997131260109,-301.336787011322
738506.44104235980194061995,-21.1501663258766,-10.6997131260109,-301.382946256905
738506.44104245025664567947,-21.1870937223426,-10.7089449751274,-301.355250709555
738506.44104254071135073900,-21.2240211188086,-10.7366405224769,-301.355250709555
738506.44104263116605579853,-21.2240211188086,-10.7089449751274,-301.336787011322
738506.44104272173717617989,-21.233252967925,-10.7458723715934,-301.355250709555
738506.44104281219188123941,-21.233252967925,-10.7089449751274,-301.281395916623
738506.44104290264658629894,-21.233252967925,-10.7274086733604,-301.189077425459
738506.44104299310129135847,-21.233252967925,-10.7181768242439,-301.299859614856
738506.44104308367241173983,-21.2424848170415,-10.7366405224769,-301.29062776574
738506.44104317412711679935,-21.2240211188086,-10.7089449751274,-301.336787011322
738506.44104326458182185888,-21.2424848170415,-10.7366405224769,-301.364482558672
738506.44104335503652691841,-21.233252967925,-10.7089449751274,-301.364482558672
738506.44104344560764729977,-21.270180364391,-10.662785729545,-301.226004821925
738506.44104353606235235929,-21.0578478347118,-10.5520035401471,-301.207541123691
738506.44104362651705741882,-20.6239509262368,-10.5612353892636,-301.152150028993
738506.44104371697176247835,-20.2823725089267,-10.7920316171758,-301.179845576342
738506.44104380754288285971,-20.5131687368389,-11.041291543321,-301.226004821925
738506.44104389799758791924,-21.5563676870022,-11.041291543321,-301.429105502487
738506.44104398845229297876,-21.6302224799341,-10.7920316171758,-301.419873653371
738506.44104407890699803829,-21.3348033082064,-10.644322031312,-301.272164067507
738506.44104416947811841965,-21.1409344767602,-10.6720175786615,-301.336787011322
738506.44104425993282347918,-21.1224707785272,-10.7089449751274,-301.336787011322
738506.44104435038752853870,-21.1317026276437,-10.6812494277779,-301.327555162206
738506.44104444084223359823,-21.1593981749931,-10.6904812768944,-301.26293221839
738506.44104453141335397959,-21.1317026276437,-10.6720175786615,-301.318323313089
738506.44104462186805903912,-21.1409344767602,-10.6997131260109,-301.299859614856
738506.44104471232276409864,-21.1132389294107,-10.6720175786615,-301.26293221839
738506.44104480277746915817,-21.1224707785272,-10.7089449751274,-301.299859614856
738506.44104489334858953953,-21.0947752311777,-10.662785729545,-301.318323313089
738506.44104498380329459906,-21.0947752311777,-10.6720175786615,-301.272164067507
738506.44104507425799965858,-21.0670796838282,-10.6535538804285,-301.309091463973
738506.44104516471270471811,-21.0670796838282,-10.6720175786615,-301.309091463973
738506.44104525528382509947,-21.0393841364788,-10.662785729545,-301.309091463973
738506.44104534573853015900,-21.0486159855953,-10.662785729545,-301.253700369274
738506.44104543619323521852,-21.0209204382458,-10.662785729545,-301.299859614856
738506.44104552664794027805,-21.0116885891293,-10.6535538804285,-301.309091463973
738506.44104561721906065941,-20.9932248908963,-10.625858333079,-301.272164067507
738506.44104570767376571894,-20.9747611926634,-10.625858333079,-301.281395916623
738506.44104579812847077847,-20.9562974944304,-10.625858333079,-301.281395916623
738506.44104588858317583799,-20.9286019470809,-10.607394634846,-301.235236671041
738506.44104597915429621935,-20.9101382488479,-10.607394634846,-301.216772972808
738506.44104606960900127888,-20.8824427014985,-10.6166264839625,-301.244468520157
738506.44104616006370633841,-20.8639790032655,-10.5889309366131,-301.244468520157
738506.44104625051841139793,-20.836283455916,-10.5335398419141,-301.216772972808
738506.44104634108953177929,-20.8085879085665,-10.5427716910306,-301.170613727226
738506.44104643154423683882,-20.7624286629841,-10.5335398419141,-301.115222632527
738506.44104652199894189835,-20.7347331156346,-10.5520035401471,-301.226004821925
738506.44104661245364695787,-20.7070375682852,-10.4966124454482,-301.235236671041
738506.44104670302476733923,-20.6793420209357,-10.4873805963317,-301.161381878109
738506.44104679347947239876,-20.6516464735862,-10.4689168980987,-301.170613727226
738506.44104688393417745829,-20.6516464735862,-10.4966124454482,-301.170613727226
738506.44104697438888251781,-20.6516464735862,-10.4966124454482,-301.189077425459
738506.44104706496000289917,-20.7070375682852,-10.5243079927976,-301.216772972808
738506.44104715541470795870,-20.7808923612171,-10.5520035401471,-301.216772972808
738506.44104724586941301823,-20.873210852382,-10.5981627857295,-301.244468520157
738506.44104733632411807775,-20.9655293435469,-10.644322031312,-301.281395916623
738506.44104742689523845911,-21.0209204382458,-10.6535538804285,-301.336787011322
738506.44104751734994351864,-21.0763115329447,-10.6904812768944,-301.364482558672
738506.44104760780464857817,-21.0947752311777,-10.6904812768944,-301.355250709555
738506.44104769825935363770,-21.1317026276437,-10.7181768242439,-301.364482558672
738506.44104778883047401905,-21.1317026276437,-10.6997131260109,-301.392178106021
738506.44104787928517907858,-21.1409344767602,-10.7181768242439,-301.346018860439
738506.44104796973988413811,-21.1224707785272,-10.6812494277779,-301.309091463973
738506.44104806019458919764,-21.1317026276437,-10.6904812768944,-301.336787011322
738506.44104815064929425716,-21.1317026276437,-10.7089449751274,-301.346018860439
738506.44104824122041463852,-21.1317026276437,-10.6997131260109,-301.336787011322
738506.44104833167511969805,-21.1317026276437,-10.7089449751274,-301.373714407788
738506.44104842212982475758,-21.1224707785272,-10.7089449751274,-301.364482558672
738506.44104851258452981710,-21.1317026276437,-10.7089449751274,-301.281395916623
738506.44104860315565019846,-21.1224707785272,-10.6997131260109,-301.272164067507
738506.44104869361035525799,-21.1317026276437,-10.7366405224769,-301.272164067507
738506.44104878406506031752,-21.1132389294107,-10.6904812768944,-301.281395916623
738506.44104887451976537704,-21.1317026276437,-10.6997131260109,-301.244468520157
738506.44104896509088575840,-21.1224707785272,-10.7089449751274,-301.336787011322
738506.44104905554559081793,-21.1317026276437,-10.7181768242439,-301.336787011322
738506.44104914600029587746,-21.1224707785272,-10.6904812768944,-301.346018860439
738506.44104923645500093699,-21.1409344767602,-10.7181768242439,-301.364482558672
738506.44104932702612131834,-21.1317026276437,-10.7089449751274,-301.410641804254
738506.44104941748082637787,-21.1501663258766,-10.7274086733604,-301.309091463973
738506.44104950793553143740,-21.1317026276437,-10.7089449751274,-301.373714407788
738506.44104959839023649693,-21.1501663258766,-10.7458723715934,-301.382946256905
738506.44104968896135687828,-21.1501663258766,-10.6997131260109,-301.373714407788
738506.44104977941606193781,-21.1686300241096,-10.7274086733604,-301.327555162206
738506.44104986987076699734,-21.1593981749931,-10.7181768242439,-301.327555162206
738506.44104996032547205687,-21.1593981749931,-10.7181768242439,-301.179845576342
738506.44105005089659243822,-21.1686300241096,-10.7274086733604,-301.364482558672
738506.44105014135129749775,-21.1501663258766,-10.7551042207099,-301.401409955138
738506.44105023180600255728,-21.1686300241096,-10.7181768242439,-301.272164067507
738506.44105032226070761681,-21.1593981749931,-10.6904812768944,-301.318323313089
738506.44105041283182799816,-21.1686300241096,-10.7551042207099,-301.29062776574
738506.44105050328653305769,-21.1593981749931,-10.6904812768944,-301.281395916623
738506.44105059374123811722,-21.1778618732261,-10.7089449751274,-301.355250709555
738506.44105068419594317675,-21.1593981749931,-10.7089449751274,-301.364482558672
738506.44105077476706355810,-21.1870937223426,-10.7274086733604,-301.355250709555
738506.44105086522176861763,-21.1593981749931,-10.7181768242439,-301.355250709555
738506.44105095567647367716,-21.1870937223426,-10.7366405224769,-301.382946256905
738506.44105104613117873669,-21.1778618732261,-10.7274086733604,-301.401409955138
738506.44105113670229911804,-21.1778618732261,-10.7274086733604,-301.29062776574
738506.44105122715700417757,-21.1686300241096,-10.7181768242439,-301.355250709555
738506.44105131761170923710,-21.1870937223426,-10.7274086733604,-301.382946256905
738506.44105140806641429663,-21.1686300241096,-10.7274086733604,-301.29062776574
738506.44105149863753467798,-21.1778618732261,-10.7551042207099,-301.364482558672
738506.44105158909223973751,-21.1778618732261,-10.7089449751274,-301.392178106021
738506.44105167954694479704,-21.1870937223426,-10.7274086733604,-301.346018860439
738506.44105177000164985657,-21.1778618732261,-10.7366405224769,-301.281395916623
738506.44105186057277023792,-21.1686300241096,-10.7181768242439,-301.336787011322
738506.44105195102747529745,-21.1870937223426,-10.7366405224769,-301.29062776574
738506.44105204148218035698,-21.1778618732261,-10.7366405224769,-301.281395916623
738506.44105213193688541651,-21.1963255714591,-10.7366405224769,-301.29062776574
738506.44105222250800579786,-21.1778618732261,-10.7181768242439,-301.299859614856
738506.44105231296271085739,-21.1870937223426,-10.7551042207099,-301.318323313089
738506.44105240341741591692,-21.1778618732261,-10.7181768242439,-301.355250709555
738506.44105249387212097645,-21.1870937223426,-10.7274086733604,-301.382946256905
738506.44105258444324135780,-21.1593981749931,-10.7089449751274,-301.355250709555
738506.44105267489794641733,-21.1501663258766,-10.7089449751274,-301.327555162206
738506.44105276535265147686,-21.1040070802942,-10.6904812768944,-301.364482558672
738506.44105285580735653639,-21.0763115329447,-10.6904812768944,-301.355250709555
738506.44105294637847691774,-21.0209204382458,-10.6812494277779,-301.336787011322
738506.44105303683318197727,-21.0301522873623,-10.6720175786615,-301.327555162206
738506.44105312728788703680,-21.0301522873623,-10.6997131260109,-301.355250709555
738506.44105321774259209633,-21.0486159855953,-10.6997131260109,-301.355250709555
738506.44105330831371247768,-21.0763115329447,-10.6904812768944,-301.299859614856
738506.44105339876841753721,-21.1317026276437,-10.7089449751274,-301.152150028993
738506.44105348922312259674,-21.1870937223426,-10.7274086733604,-301.29062776574
738506.44105357967782765627,-21.2147892696921,-10.7089449751274,-301.355250709555
738506.44105367024894803762,-21.233252967925,-10.7274086733604,-301.346018860439
738506.44105376070365309715,-21.2240211188086,-10.7366405224769,-301.355250709555
738506.44105385115835815668,-21.233252967925,-10.7551042207099,-301.346018860439
738506.44105394161306321621,-21.233252967925,-10.7366405224769,-301.346018860439
738506.44105403218418359756,-21.2424848170415,-10.7551042207099,-301.327555162206
738506.44105412263888865709,-21.2424848170415,-10.7366405224769,-301.355250709555
738506.44105421309359371662,-21.233252967925,-10.7274086733604,-301.355250709555
738506.44105430354829877615,-21.233252967925,-10.7274086733604,-301.299859614856
738506.44105439411941915751,-21.233252967925,-10.7366405224769,-301.364482558672
738506.44105448457412421703,-21.270180364391,-10.7181768242439,-301.272164067507
738506.44105457502882927656,-21.2240211188086,-10.607394634846,-301.346018860439
738506.44105466548353433609,-20.9378337961974,-10.5520035401471,-301.272164067507
738506.44105475605465471745,-20.4670094912564,-10.625858333079,-301.235236671041
738506.44105484650935977697,-20.2269814142277,-10.9120456556902,-301.272164067507
738506.44105493696406483650,-20.9101382488479,-11.059755241554,-301.382946256905
738506.44105502741876989603,-21.6948454237495,-11.0043641468551,-301.44756920072
738506.44105511798989027739,-21.5194402905362,-10.6904812768944,-301.336787011322
738506.44105520844459533691,-21.233252967925,-10.6535538804285,-301.327555162206
738506.44105529889930039644,-21.1040070802942,-10.644322031312,-301.336787011322
738506.44105538935400545597,-21.1409344767602,-10.6812494277779,-301.26293221839
738506.44105547992512583733,-21.1317026276437,-10.662785729545,-301.336787011322
738506.44105557037983089685,-21.1409344767602,-10.6720175786615,-301.327555162206
738506.44105566083453595638,-21.1317026276437,-10.6904812768944,-301.327555162206
738506.44105575128924101591,-21.1224707785272,-10.6720175786615,-301.26293221839
738506.44105584174394607544,-21.1224707785272,-10.6997131260109,-301.281395916623
738506.44105593231506645679,-21.1040070802942,-10.6812494277779,-301.281395916623
738506.44105602276977151632,-21.1040070802942,-10.6812494277779,-301.253700369274
738506.44105611322447657585,-21.0763115329447,-10.6720175786615,-301.26293221839
738506.44105620367918163538,-21.0855433820612,-10.6812494277779,-301.272164067507
738506.44105629425030201674,-21.0578478347118,-10.644322031312,-301.327555162206
738506.44105638470500707626,-21.0578478347118,-10.644322031312,-301.299859614856
738506.44105647515971213579,-21.0301522873623,-10.6350901821955,-301.318323313089
738506.44105656561441719532,-21.0209204382458,-10.6535538804285,-301.299859614856
738506.44105665618553757668,-20.9932248908963,-10.625858333079,-301.299859614856
738506.44105674664024263620,-20.9932248908963,-10.644322031312,-301.29062776574
738506.44105683709494769573,-20.9562974944304,-10.6166264839625,-301.299859614856
738506.44105692754965275526,-20.9562974944304,-10.644322031312,-301.13368633076
738506.44105701812077313662,-20.9193700979644,-10.607394634846,-301.207541123691
738506.44105710857547819614,-20.9009063997314,-10.5796990874966,-301.281395916623
738506.44105719903018325567,-20.873210852382,-10.5796990874966,-301.281395916623
738506.44105728948488831520,-20.8455153050325,-10.5704672383801,-301.244468520157
738506.44105738005600869656,-20.8085879085665,-10.5612353892636,-301.272164067507
738506.44105747051071375608,-20.7901242103336,-10.5427716910306,-301.272164067507
738506.44105756096541881561,-20.7716605121006,-10.5243079927976,-301.235236671041
738506.44105765142012387514,-20.7255012665181,-10.4966124454482,-301.253700369274
738506.44105774199124425650,-20.6978057191687,-10.5058442945647,-301.235236671041
738506.44105783244594931602,-20.6608783227027,-10.4781487472152,-301.235236671041
738506.44105792290065437555,-20.6608783227027,-10.4689168980987,-301.226004821925
738506.44105801335535943508,-20.6516464735862,-10.4689168980987,-301.198309274575
738506.44105810392647981644,-20.6701101718192,-10.5243079927976,-301.216772972808
738506.44105819438118487597,-20.7162694174017,-10.5520035401471,-301.26293221839
738506.44105828483588993549,-20.8085879085665,-10.5427716910306,-301.26293221839
738506.44105837529059499502,-20.8916745506149,-10.5889309366131,-301.29062776574
738506.44105846586171537638,-20.9839930417798,-10.6350901821955,-301.272164067507
738506.44105855631642043591,-21.0209204382458,-10.644322031312,-301.26293221839
738506.44105864677112549543,-21.0763115329447,-10.6997131260109,-301.281395916623
738506.44105873722583055496,-21.0947752311777,-10.6812494277779,-301.309091463973
738506.44105882779695093632,-21.1132389294107,-10.6997131260109,-301.272164067507
738506.44105891825165599585,-21.1224707785272,-10.7089449751274,-301.299859614856
738506.44105900870636105537,-21.1409344767602,-10.6997131260109,-301.29062776574
738506.44105909916106611490,-21.1317026276437,-10.7089449751274,-301.318323313089
738506.44105918973218649626,-21.1224707785272,-10.6812494277779,-301.299859614856
738506.44105928018689155579,-21.1409344767602,-10.6997131260109,-301.309091463973
738506.44105937064159661531,-21.1317026276437,-10.7089449751274,-301.318323313089
738506.44105946109630167484,-21.1409344767602,-10.7366405224769,-301.281395916623
738506.44105955166742205620,-21.1317026276437,-10.6904812768944,-301.327555162206
738506.44105964212212711573,-21.1317026276437,-10.6997131260109,-301.29062776574
738506.44105973257683217525,-21.1317026276437,-10.7089449751274,-301.336787011322
738506.44105982303153723478,-21.1409344767602,-10.6997131260109,-301.327555162206
738506.44105991360265761614,-21.1317026276437,-10.7181768242439,-301.382946256905
738506.44106000405736267567,-21.1409344767602,-10.7181768242439,-301.318323313089
738506.44106009451206773520,-21.1317026276437,-10.6904812768944,-301.281395916623
738506.44106018496677279472,-21.1409344767602,-10.7089449751274,-301.29062776574
738506.44106027553789317608,-21.1501663258766,-10.7274086733604,-301.336787011322
738506.44106036599259823561,-21.1409344767602,-10.6904812768944,-301.309091463973
738506.44106045644730329514,-21.1501663258766,-10.6904812768944,-301.207541123691
738506.44106054690200835466,-21.1593981749931,-10.6997131260109,-301.29062776574
738506.44106063747312873602,-21.1686300241096,-10.7274086733604,-301.346018860439
738506.44106072792783379555,-21.1593981749931,-10.7274086733604,-301.29062776574
738506.44106081838253885508,-21.1778618732261,-10.7089449751274,-301.336787011322
738506.44106090883724391460,-21.1686300241096,-10.6997131260109,-301.392178106021
738506.44106099940836429596,-21.1778618732261,-10.7274086733604,-301.318323313089
738506.44106108986306935549,-21.1686300241096,-10.7089449751274,-301.355250709555
738506.44106118031777441502,-21.1686300241096,-10.7181768242439,-301.364482558672
738506.44106127077247947454,-21.1778618732261,-10.7366405224769,-301.355250709555
738506.44106136134359985590,-21.1686300241096,-10.7274086733604,-301.281395916623
738506.44106145179830491543,-21.1778618732261,-10.7181768242439,-301.346018860439
738506.44106154225300997496,-21.1778618732261,-10.7181768242439,-301.364482558672
738506.44106163270771503448,-21.1778618732261,-10.7274086733604,-301.355250709555
738506.44106172327883541584,-21.1778618732261,-10.7458723715934,-301.336787011322
738506.44106181373354047537,-21.1870937223426,-10.7366405224769,-301.355250709555
738506.44106190418824553490,-21.1778618732261,-10.6997131260109,-301.346018860439
738506.44106199464295059443,-21.1870937223426,-10.7458723715934,-301.309091463973
738506.44106208521407097578,-21.1870937223426,-10.7181768242439,-301.373714407788
738506.44106217566877603531,-21.1963255714591,-10.7551042207099,-301.392178106021
738506.44106226612348109484,-21.1778618732261,-10.7089449751274,-301.29062776574
738506.44106235657818615437,-21.1963255714591,-10.7274086733604,-301.336787011322
738506.44106244714930653572,-21.1778618732261,-10.7089449751274,-301.364482558672
738506.44106253760401159525,-21.1870937223426,-10.7458723715934,-301.373714407788
738506.44106262805871665478,-21.1778618732261,-10.6997131260109,-301.336787011322
738506.44106271851342171431,-21.1870937223426,-10.7366405224769,-301.272164067507
738506.44106280908454209566,-21.1686300241096,-10.7366405224769,-301.299859614856
738506.44106289953924715519,-21.1870937223426,-10.7181768242439,-301.299859614856
738506.44106298999395221472,-21.1870937223426,-10.7181768242439,-301.272164067507
738506.44106308044865727425,-21.1870937223426,-10.7181768242439,-301.299859614856
738506.44106317101977765560,-21.1870937223426,-10.7551042207099,-301.29062776574
738506.44106326147448271513,-21.1686300241096,-10.7181768242439,-301.281395916623
738506.44106335192918777466,-21.1870937223426,-10.7274086733604,-301.244468520157
738506.44106344238389283419,-21.1778618732261,-10.7366405224769,-301.26293221839
738506.44106353283859789371,-21.1870937223426,-10.7366405224769,-301.29062776574
738506.44106362340971827507,-21.1686300241096,-10.7274086733604,-301.281395916623
738506.44106371386442333460,-21.1870937223426,-10.7366405224769,-301.272164067507
738506.44106380431912839413,-21.1686300241096,-10.7366405224769,-301.253700369274
738506.44106389477383345366,-21.1870937223426,-10.7274086733604,-301.26293221839
738506.44106398534495383501,-21.1778618732261,-10.7274086733604,-301.216772972808
738506.44106407579965889454,-21.1963255714591,-10.7274086733604,-301.235236671041
738506.44106416625436395407,-21.1778618732261,-10.7181768242439,-301.373714407788
738506.44106425670906901360,-21.1963255714591,-10.7458723715934,-301.382946256905
738506.44106434728018939495,-21.1686300241096,-10.7366405224769,-301.346018860439
738506.44106443773489445448,-21.1778618732261,-10.7181768242439,-301.346018860439
738506.44106452818959951401,-21.1686300241096,-10.7089449751274,-301.373714407788
738506.44106461864430457354,-21.1409344767602,-10.7181768242439,-301.355250709555
738506.44106470921542495489,-21.0947752311777,-10.6997131260109,-301.382946256905
738506.44106479967013001442,-21.0393841364788,-10.6812494277779,-301.373714407788
738506.44106489012483507395,-21.0301522873623,-10.6997131260109,-301.373714407788
738506.44106498057954013348,-21.0301522873623,-10.6812494277779,-301.346018860439
738506.44106507115066051483,-21.0393841364788,-10.7089449751274,-301.364482558672
738506.44106516160536557436,-21.0393841364788,-10.7089449751274,-301.364482558672
738506.44106525206007063389,-21.0763115329447,-10.6904812768944,-301.327555162206
738506.44106534251477569342,-21.1132389294107,-10.6720175786615,-301.364482558672
738506.44106543308589607477,-21.1870937223426,-10.7458723715934,-301.401409955138
738506.44106552354060113430,-21.2055574205756,-10.7181768242439,-301.355250709555
738506.44106561399530619383,-21.233252967925,-10.7458723715934,-301.336787011322
738506.44106570445001125336,-21.2240211188086,-10.7458723715934,-301.364482558672
738506.44106579502113163471,-21.233252967925,-10.7458723715934,-301.373714407788
738506.44106588547583669424,-21.2424848170415,-10.7366405224769,-301.401409955138
738506.44106597593054175377,-21.251716666158,-10.7458723715934,-301.373714407788
738506.44106606638524681330,-21.2424848170415,-10.7458723715934,-301.382946256905
738506.44106615695636719465,-21.2424848170415,-10.7366405224769,-301.364482558672
738506.44106624741107225418,-21.2424848170415,-10.7551042207099,-301.309091463973
738506.44106633786577731371,-21.233252967925,-10.7181768242439,-301.336787011322
738506.44106642832048237324,-21.270180364391,-10.6720175786615,-301.309091463973
738506.44106651889160275459,-21.1501663258766,-10.607394634846,-301.235236671041
738506.44106660934630781412,-20.7901242103336,-10.5704672383801,-301.226004821925
738506.44106669980101287365,-20.3469954527421,-10.6997131260109,-301.235236671041
738506.44106679025571793318,-20.2269814142277,-10.8843501083407,-301.189077425459
738506.44106688082683831453,-20.6608783227027,-11.059755241554,-301.299859614856
738506.44106697128154337406,-21.6209906308176,-11.022827845088,-301.438337351604
738506.44106706173624843359,-21.5655995361187,-10.7458723715934,-301.346018860439
738506.44106715219095349312,-21.288644062624,-10.6350901821955,-301.281395916623
738506.44106724276207387447,-21.1224707785272,-10.6535538804285,-301.281395916623
738506.44106733321677893400,-21.1224707785272,-10.6904812768944,-301.309091463973
738506.44106742367148399353,-21.1317026276437,-10.7181768242439,-301.355250709555
738506.44106751412618905306,-21.1317026276437,-10.6904812768944,-301.198309274575
738506.44106760469730943441,-21.1317026276437,-10.6904812768944,-301.189077425459
738506.44106769515201449394,-21.1132389294107,-10.6812494277779,-301.299859614856
738506.44106778560671955347,-21.1132389294107,-10.6997131260109,-301.26293221839
738506.44106787606142461300,-21.0947752311777,-10.6904812768944,-301.29062776574
738506.44106796663254499435,-21.1040070802942,-10.7089449751274,-301.272164067507
738506.44106805708725005388,-21.0670796838282,-10.662785729545,-301.244468520157
738506.44106814754195511341,-21.0670796838282,-10.6904812768944,-301.244468520157
738506.44106823799666017294,-21.0393841364788,-10.6535538804285,-301.26293221839
738506.44106832856778055429,-21.0486159855953,-10.6812494277779,-301.226004821925
738506.44106841902248561382,-21.0209204382458,-10.6720175786615,-301.226004821925
738506.44106850947719067335,-21.0209204382458,-10.6720175786615,-301.235236671041
738506.44106859993189573288,-20.9932248908963,-10.644322031312,-301.26293221839
738506.44106869050301611423,-20.9932248908963,-10.6350901821955,-301.253700369274
738506.44106878095772117376,-20.9747611926634,-10.644322031312,-301.244468520157
738506.44106887141242623329,-20.9562974944304,-10.644322031312,-301.253700369274
738506.44106896186713129282,-20.9378337961974,-10.625858333079,-301.299859614856
738506.44106905243825167418,-20.9101382488479,-10.5889309366131,-301.327555162206
738506.44106914289295673370,-20.8916745506149,-10.607394634846,-301.272164067507
738506.44106923334766179323,-20.8639790032655,-10.5889309366131,-301.318323313089
738506.44106932380236685276,-20.8455153050325,-10.5704672383801,-301.299859614856
738506.44106941437348723412,-20.7993560594501,-10.5335398419141,-301.309091463973
738506.44106950482819229364,-20.7716605121006,-10.5427716910306,-301.281395916623
738506.44106959528289735317,-20.7255012665181,-10.5150761436811,-301.272164067507
738506.44106968573760241270,-20.7162694174017,-10.5427716910306,-301.272164067507
738506.44106977630872279406,-20.6793420209357,-10.4689168980987,-301.226004821925
738506.44106986676342785358,-20.6793420209357,-10.4873805963317,-301.253700369274
738506.44106995721813291311,-20.6608783227027,-10.4966124454482,-301.281395916623
738506.44107004767283797264,-20.6885738700522,-10.5150761436811,-301.216772972808
738506.44107013824395835400,-20.7255012665181,-10.5427716910306,-301.309091463973
738506.44107022869866341352,-20.8085879085665,-10.5981627857295,-301.299859614856
738506.44107031915336847305,-20.8916745506149,-10.6166264839625,-301.309091463973
738506.44107040960807353258,-20.9655293435469,-10.6535538804285,-301.318323313089
738506.44107050017919391394,-21.0209204382458,-10.6812494277779,-301.318323313089
738506.44107059063389897346,-21.0486159855953,-10.662785729545,-301.355250709555
738506.44107068108860403299,-21.0947752311777,-10.7089449751274,-301.299859614856
738506.44107077154330909252,-21.0947752311777,-10.7089449751274,-301.327555162206
738506.44107086211442947388,-21.1224707785272,-10.7089449751274,-301.355250709555
738506.44107095256913453341,-21.1132389294107,-10.6997131260109,-301.29062776574
738506.44107104302383959293,-21.1224707785272,-10.7274086733604,-301.235236671041
738506.44107113347854465246,-21.1132389294107,-10.7089449751274,-301.198309274575
738506.44107122404966503382,-21.1317026276437,-10.6997131260109,-301.253700369274
738506.44107131450437009335,-21.1132389294107,-10.6997131260109,-301.244468520157
738506.44107140495907515287,-21.1224707785272,-10.7274086733604,-301.272164067507
738506.44107149541378021240,-21.1132389294107,-10.7089449751274,-301.253700369274
738506.44107158586848527193,-21.1224707785272,-10.7089449751274,-301.253700369274
738506.44107167643960565329,-21.1132389294107,-10.6997131260109,-301.272164067507
738506.44107176689431071281,-21.1224707785272,-10.7181768242439,-301.318323313089
738506.44107185734901577234,-21.1224707785272,-10.7274086733604,-301.309091463973
738506.44107194780372083187,-21.1224707785272,-10.7181768242439,-301.299859614856
738506.44107203837484121323,-21.1224707785272,-10.7274086733604,-301.309091463973
738506.44107212882954627275,-21.1317026276437,-10.6997131260109,-301.309091463973
738506.44107221928425133228,-21.1409344767602,-10.7181768242439,-301.327555162206
738506.44107230973895639181,-21.1317026276437,-10.7089449751274,-301.272164067507
738506.44107240031007677317,-21.1501663258766,-10.7366405224769,-301.26293221839
738506.44107249076478183270,-21.1409344767602,-10.7181768242439,-301.281395916623
738506.44107258121948689222,-21.1501663258766,-10.7181768242439,-301.318323313089
738506.44107267167419195175,-21.1501663258766,-10.7089449751274,-301.346018860439
738506.44107276224531233311,-21.1686300241096,-10.7274086733604,-301.346018860439
738506.44107285270001739264,-21.1593981749931,-10.7181768242439,-301.401409955138
738506.44107294315472245216,-21.1593981749931,-10.7274086733604,-301.410641804254
738506.44107303360942751169,-21.1686300241096,-10.7458723715934,-301.373714407788
738506.44107312418054789305,-21.1686300241096,-10.6997131260109,-301.346018860439
738506.44107321463525295258,-21.1778618732261,-10.7274086733604,-301.382946256905
738506.44107330508995801210,-21.1778618732261,-10.7274086733604,-301.382946256905
738506.44107339554466307163,-21.1778618732261,-10.7366405224769,-301.336787011322
738506.44107348611578345299,-21.1778618732261,-10.7274086733604,-301.373714407788
738506.44107357657048851252,-21.1778618732261,-10.7366405224769,-301.382946256905
738506.44107366702519357204,-21.1778618732261,-10.7366405224769,-301.392178106021
738506.44107375747989863157,-21.1870937223426,-10.7551042207099,-301.382946256905
738506.44107384805101901293,-21.1686300241096,-10.6904812768944,-301.373714407788
738506.44107393850572407246,-21.1870937223426,-10.7458723715934,-301.355250709555
738506.44107402896042913198,-21.1686300241096,-10.7089449751274,-301.327555162206
738506.44107411941513419151,-21.1870937223426,-10.7274086733604,-301.401409955138
738506.44107420998625457287,-21.1686300241096,-10.7181768242439,-301.373714407788
738506.44107430044095963240,-21.1778618732261,-10.7274086733604,-301.373714407788
738506.44107439089566469193,-21.1870937223426,-10.7274086733604,-301.382946256905
738506.44107448135036975145,-21.1778618732261,-10.7366405224769,-301.392178106021
738506.44107457192149013281,-21.1870937223426,-10.7458723715934,-301.346018860439
738506.44107466237619519234,-21.1778618732261,-10.7274086733604,-301.235236671041
738506.44107475283090025187,-21.1870937223426,-10.7181768242439,-301.373714407788
738506.44107484328560531139,-21.1778618732261,-10.7181768242439,-301.419873653371
738506.44107493385672569275,-21.1963255714591,-10.7551042207099,-301.392178106021
738506.44107502431143075228,-21.1778618732261,-10.7089449751274,-301.410641804254
738506.44107511476613581181,-21.1963255714591,-10.7458723715934,-301.355250709555
738506.44107520522084087133,-21.1778618732261,-10.7089449751274,-301.336787011322
738506.44107529579196125269,-21.1870937223426,-10.7458723715934,-301.346018860439
738506.44107538624666631222,-21.1778618732261,-10.7089449751274,-301.309091463973
738506.44107547670137137175,-21.1870937223426,-10.7643360698263,-301.309091463973
738506.44107556715607643127,-21.1778618732261,-10.6997131260109,-301.29062776574
738506.44107565772719681263,-21.1870937223426,-10.7274086733604,-301.29062776574
738506.44107574818190187216,-21.1778618732261,-10.7089449751274,-301.299859614856
738506.44107583863660693169,-21.1870937223426,-10.7458723715934,-301.309091463973
738506.44107592909131199121,-21.1778618732261,-10.7274086733604,-301.272164067507
738506.44107601966243237257,-21.1870937223426,-10.7274086733604,-301.299859614856
738506.44107611011713743210,-21.1870937223426,-10.7181768242439,-301.299859614856
738506.44107620057184249163,-21.1870937223426,-10.7181768242439,-301.299859614856
738506.44107629102654755116,-21.1963255714591,-10.7274086733604,-301.281395916623
738506.44107638159766793251,-21.1870937223426,-10.7089449751274,-301.29062776574
738506.44107647205237299204,-21.1963255714591,-10.7458723715934,-301.327555162206
738506.44107656250707805157,-21.1593981749931,-10.6997131260109,-301.346018860439
738506.44107665296178311110,-21.1317026276437,-10.7089449751274,-301.327555162206
738506.44107674353290349245,-21.0763115329447,-10.6904812768944,-301.235236671041
738506.44107683398760855198,-21.0393841364788,-10.6812494277779,-301.299859614856
738506.44107692444231361151,-21.0209204382458,-10.6997131260109,-301.299859614856
738506.44107701489701867104,-21.0578478347118,-10.6904812768944,-301.26293221839
738506.44107710546813905239,-21.0393841364788,-10.6720175786615,-301.318323313089
738506.44107719592284411192,-21.0763115329447,-10.6904812768944,-301.346018860439
738506.44107728637754917145,-21.0947752311777,-10.6904812768944,-301.336787011322
738506.44107737683225423098,-21.1778618732261,-10.7274086733604,-301.272164067507
738506.44107746740337461233,-21.2147892696921,-10.7458723715934,-301.401409955138
738506.44107755785807967186,-21.2240211188086,-10.7274086733604,-301.401409955138
738506.44107764831278473139,-21.2240211188086,-10.7458723715934,-301.299859614856
738506.44107773876748979092,-21.233252967925,-10.7181768242439,-301.373714407788
738506.44107782933861017227,-21.2424848170415,-10.7458723715934,-301.401409955138
738506.44107791979331523180,-21.2424848170415,-10.7458723715934,-301.382946256905
738506.44107801024802029133,-21.251716666158,-10.7458723715934,-301.336787011322
738506.44107810070272535086,-21.233252967925,-10.7366405224769,-301.364482558672
738506.44107819127384573221,-21.2424848170415,-10.7366405224769,-301.244468520157
738506.44107828172855079174,-21.233252967925,-10.7089449751274,-301.346018860439
738506.44107837218325585127,-21.2609485152745,-10.7274086733604,-301.364482558672
738506.44107846263796091080,-21.270180364391,-10.662785729545,-301.355250709555
738506.44107855320908129215,-21.0855433820612,-10.5796990874966,-301.309091463973
738506.44107864366378635168,-20.6239509262368,-10.5796990874966,-301.281395916623
738506.44107873411849141121,-20.2823725089267,-10.8381908627583,-301.318323313089
738506.44107882457319647074,-20.5224005859554,-11.059755241554,-301.309091463973
738506.44107891514431685209,-21.5471358378857,-11.059755241554,-301.466032898953
738506.44107900559902191162,-21.5932950834681,-10.7735679189428,-301.382946256905
738506.44107909605372697115,-21.3255714590899,-10.6166264839625,-301.364482558672
738506.44107918650843203068,-21.1501663258766,-10.6720175786615,-301.327555162206
738506.44107927696313709021,-21.1409344767602,-10.6904812768944,-301.355250709555
738506.44107936753425747156,-21.1501663258766,-10.7089449751274,-301.373714407788
738506.44107945798896253109,-21.1317026276437,-10.6904812768944,-301.346018860439
738506.44107954844366759062,-21.1317026276437,-10.7089449751274,-301.29062776574
738506.44107963889837265015,-21.1132389294107,-10.6720175786615,-301.253700369274
738506.44107972946949303150,-21.1317026276437,-10.7274086733604,-301.299859614856
738506.44107981992419809103,-21.0947752311777,-10.6904812768944,-301.272164067507
738506.44107991037890315056,-21.1132389294107,-10.7181768242439,-301.281395916623
738506.44108000083360821009,-21.1040070802942,-10.6904812768944,-301.253700369274
738506.44108009140472859144,-21.0855433820612,-10.6904812768944,-301.355250709555
738506.44108018185943365097,-21.0763115329447,-10.6997131260109,-301.373714407788
738506.44108027231413871050,-21.0670796838282,-10.6997131260109,-301.309091463973
738506.44108036276884377003,-21.0670796838282,-10.7274086733604,-301.327555162206
738506.44108045333996415138,-20.9932248908963,-10.6166264839625,-301.346018860439
738506.44108054379466921091,-20.9932248908963,-10.6535538804285,-301.336787011322
738506.44108063424937427044,-21.0024567400128,-10.6720175786615,-301.29062776574
738506.44108072470407932997,-21.0024567400128,-10.6904812768944,-301.355250709555
738506.44108081527519971132,-20.9470656453139,-10.6350901821955,-301.318323313089
738506.44108090572990477085,-20.9378337961974,-10.644322031312,-301.207541123691
738506.44108099618460983038,-20.9193700979644,-10.607394634846,-301.189077425459
738506.44108108663931488991,-20.9378337961974,-10.644322031312,-301.226004821925
738506.44108117721043527126,-20.8639790032655,-10.5889309366131,-301.327555162206
738506.44108126766514033079,-20.9193700979644,-10.6997131260109,-301.318323313089
738506.44108135811984539032,-20.836283455916,-10.5981627857295,-301.281395916623
738506.44108144857455044985,-20.7993560594501,-10.5612353892636,-301.198309274575
738506.44108153914567083120,-20.7716605121006,-10.5704672383801,-301.207541123691
738506.44108162960037589073,-20.7531968138676,-10.5520035401471,-301.013672292245
738506.44108172005508095026,-20.6885738700522,-10.4966124454482,-301.050599688711
738506.44108181050978600979,-20.6978057191687,-10.5243079927976,-301.152150028993
738506.44108190108090639114,-20.7070375682852,-10.5335398419141,-301.198309274575
738506.44108199153561145067,-20.6885738700522,-10.5335398419141,-301.281395916623
738506.44108208199031651020,-20.7439649647511,-10.5889309366131,-301.142918179876
738506.44108217244502156973,-20.7531968138676,-10.5704672383801,-301.253700369274
738506.44108226301614195108,-20.873210852382,-10.6350901821955,-301.318323313089
738506.44108235347084701061,-20.9101382488479,-10.6535538804285,-301.327555162206
738506.44108244392555207014,-21.0301522873623,-10.6904812768944,-301.272164067507
738506.44108253438025712967,-21.0393841364788,-10.6812494277779,-301.355250709555
738506.44108262495137751102,-21.1317026276437,-10.7643360698263,-301.355250709555
738506.44108271540608257055,-21.1132389294107,-10.7274086733604,-301.29062776574
738506.44108280586078763008,-21.1778618732261,-10.7643360698263,-301.336787011322
738506.44108289631549268961,-21.1040070802942,-10.6904812768944,-301.364482558672
738506.44108298688661307096,-21.1317026276437,-10.7458723715934,-301.364482558672
738506.44108307734131813049,-21.1224707785272,-10.7366405224769,-301.346018860439
738506.44108316779602319002,-21.1317026276437,-10.7551042207099,-301.364482558672
738506.44108325825072824955,-21.0855433820612,-10.6997131260109,-301.336787011322
738506.44108334882184863091,-21.1224707785272,-10.7643360698263,-301.309091463973
738506.44108343927655369043,-21.1501663258766,-10.7920316171758,-301.336787011322
738506.44108352973125874996,-21.1224707785272,-10.7551042207099,-301.336787011322
738506.44108362018596380949,-21.1317026276437,-10.7366405224769,-301.327555162206
738506.44108371075708419085,-21.1040070802942,-10.7181768242439,-301.318323313089
738506.44108380121178925037,-21.1132389294107,-10.7643360698263,-301.327555162206
738506.44108389166649430990,-21.0947752311777,-10.7274086733604,-301.355250709555
738506.44108398212119936943,-21.1132389294107,-10.7089449751274,-301.26293221839
738506.44108407269231975079,-21.0393841364788,-10.6350901821955,-301.336787011322
738506.44108416314702481031,-21.0393841364788,-10.662785729545,-301.327555162206
738506.44108425360172986984,-21.0855433820612,-10.644322031312,-301.309091463973
738506.44108434405643492937,-21.0763115329447,-10.6720175786615,-301.318323313089
738506.44108443462755531073,-21.2055574205756,-10.8104953154088,-301.318323313089
738506.44108452508226037025,-21.1778618732261,-10.7643360698263,-301.272164067507
738506.44108461553696542978,-21.1870937223426,-10.7735679189428,-301.244468520157
738506.44108470599167048931,-21.1593981749931,-10.7366405224769,-301.281395916623
738506.44108479656279087067,-21.1317026276437,-10.7274086733604,-301.29062776574
738506.44108488701749593019,-21.0947752311777,-10.6904812768944,-301.29062776574
738506.44108497747220098972,-21.1686300241096,-10.7366405224769,-301.327555162206
738506.44108506792690604925,-21.1686300241096,-10.7643360698263,-301.364482558672
738506.44108515849802643061,-21.1317026276437,-10.6997131260109,-301.170613727226
738506.44108524895273149014,-21.1963255714591,-10.7643360698263,-301.235236671041
738506.44108533940743654966,-21.1870937223426,-10.7735679189428,-301.355250709555
738506.44108542986214160919,-21.1870937223426,-10.7458723715934,-301.346018860439
738506.44108552043326199055,-21.2240211188086,-10.7827997680593,-301.272164067507
738506.44108561088796705008,-21.1593981749931,-10.7366405224769,-301.309091463973
738506.44108570134267210960,-21.1409344767602,-10.7181768242439,-301.355250709555
738506.44108579179737716913,-21.2055574205756,-10.7735679189428,-301.318323313089
738506.44108588236849755049,-21.1593981749931,-10.7274086733604,-301.318323313089
738506.44108597282320261002,-21.1686300241096,-10.7366405224769,-301.392178106021
738506.44108606327790766954,-21.1870937223426,-10.7643360698263,-301.355250709555
738506.44108615373261272907,-21.1224707785272,-10.7181768242439,-301.318323313089
738506.44108624430373311043,-21.1686300241096,-10.7274086733604,-301.364482558672
738506.44108633475843816996,-21.2055574205756,-10.7643360698263,-301.364482558672
738506.44108642521314322948,-21.1132389294107,-10.7089449751274,-301.364482558672
738506.44108651566784828901,-21.251716666158,-10.8104953154088,-301.346018860439
738506.44108660623896867037,-21.2424848170415,-10.8289590136418,-301.364482558672
738506.44108669669367372990,-21.1686300241096,-10.7551042207099,-301.355250709555
738506.44108678714837878942,-21.1501663258766,-10.7089449751274,-301.327555162206
738506.44108687760308384895,-21.2147892696921,-10.7920316171758,-301.355250709555
738506.44108696805778890848,-21.2147892696921,-10.7735679189428,-301.364482558672
738506.44108705862890928984,-21.2055574205756,-10.7643360698263,-301.327555162206
738506.44108714908361434937,-21.1686300241096,-10.7089449751274,-301.355250709555
738506.44108723953831940889,-21.1132389294107,-10.6812494277779,-301.346018860439
738506.44108732999302446842,-21.1224707785272,-10.6904812768944,-301.346018860439
738506.44108742056414484978,-21.1686300241096,-10.7366405224769,-301.327555162206
738506.44108751101884990931,-21.233252967925,-10.8289590136418,-301.364482558672
738506.44108760147355496883,-21.1593981749931,-10.6997131260109,-301.364482558672
738506.44108769192826002836,-21.1593981749931,-10.7735679189428,-301.318323313089
738506.44108778249938040972,-21.0578478347118,-10.6812494277779,-301.355250709555
738506.44108787295408546925,-21.0670796838282,-10.6904812768944,-301.346018860439
738506.44108796340879052877,-21.0947752311777,-10.7181768242439,-301.364482558672
738506.44108805386349558830,-21.0763115329447,-10.7827997680593,-301.355250709555
738506.44108814443461596966,-20.9932248908963,-10.6904812768944,-301.346018860439
738506.44108823488932102919,-21.0486159855953,-10.7735679189428,-301.336787011322
738506.44108832534402608871,-21.0947752311777,-10.7366405224769,-301.244468520157
738506.44108841579873114824,-21.1132389294107,-10.7827997680593,-301.327555162206
738506.44108850636985152960,-21.0763115329447,-10.6997131260109,-301.299859614856
738506.44108859682455658913,-21.1870937223426,-10.7735679189428,-301.272164067507
738506.44108868727926164865,-21.2794122135075,-10.8104953154088,-301.170613727226
738506.44108877773396670818,-21.2609485152745,-10.8197271645253,-301.26293221839
738506.44108886830508708954,-21.233252967925,-10.8012634662923,-301.336787011322
738506.44108895875979214907,-21.2240211188086,-10.7181768242439,-301.336787011322
738506.44108904921449720860,-21.2794122135075,-10.8197271645253,-301.392178106021
738506.44108913966920226812,-21.251716666158,-10.8012634662923,-301.382946256905
738506.44108923024032264948,-21.233252967925,-10.7735679189428,-301.299859614856
738506.44108932069502770901,-21.233252967925,-10.7551042207099,-301.29062776574
738506.44108941114973276854,-21.270180364391,-10.8104953154088,-301.281395916623
738506.44108950160443782806,-21.2055574205756,-10.7458723715934,-301.318323313089
738506.44108959217555820942,-21.2978759117405,-10.7366405224769,-301.299859614856
738506.44108968263026326895,-21.2424848170415,-10.7089449751274,-301.336787011322
738506.44108977308496832848,-20.873210852382,-10.6350901821955,-301.29062776574
738506.44108986353967338800,-20.3469954527421,-10.662785729545,-301.253700369274
738506.44108995411079376936,-20.2546769615772,-11.0689870906705,-301.244468520157
738506.44109004456549882889,-21.1593981749931,-11.1520737327189,-301.318323313089
738506.44109013502020388842,-21.7133091219825,-10.9582049012726,-301.44756920072
738506.44109022547490894794,-21.5379039887692,-10.7458723715934,-301.336787011322
738506.44109031604602932930,-21.2147892696921,-10.6904812768944,-301.373714407788
738506.44109040650073438883,-21.1040070802942,-10.6904812768944,-301.355250709555
738506.44109049695543944836,-21.0670796838282,-10.6720175786615,-301.299859614856
738506.44109058741014450788,-21.1963255714591,-10.7920316171758,-301.364482558672
738506.44109067798126488924,-21.2240211188086,-10.8104953154088,-301.392178106021
738506.44109076843596994877,-21.1870937223426,-10.7458723715934,-301.26293221839
738506.44109085889067500830,-21.0947752311777,-10.7089449751274,-301.346018860439
738506.44109094934538006783,-21.1870937223426,-10.7827997680593,-301.355250709555
738506.44109103991650044918,-21.1686300241096,-10.7827997680593,-301.327555162206
738506.44109113037120550871,-21.1317026276437,-10.7643360698263,-301.299859614856
738506.44109122082591056824,-21.0486159855953,-10.6350901821955,-301.336787011322
738506.44109131128061562777,-21.1409344767602,-10.7551042207099,-301.355250709555
738506.44109140185173600912,-21.0947752311777,-10.7274086733604,-301.281395916623
738506.44109149230644106865,-21.0670796838282,-10.6997131260109,-301.364482558672
738506.44109158276114612818,-21.0578478347118,-10.6812494277779,-301.336787011322
738506.44109167321585118771,-21.0393841364788,-10.7089449751274,-301.29062776574
738506.44109176378697156906,-21.0301522873623,-10.7181768242439,-301.299859614856
738506.44109185424167662859,-21.0486159855953,-10.7089449751274,-301.336787011322
738506.44109194469638168812,-21.0209204382458,-10.6997131260109,-301.336787011322
738506.44109203515108674765,-20.9286019470809,-10.6350901821955,-301.336787011322
738506.44109212572220712900,-21.0024567400128,-10.7089449751274,-301.346018860439
738506.44109221617691218853,-20.9655293435469,-10.644322031312,-301.207541123691
738506.44109230663161724806,-20.9009063997314,-10.625858333079,-301.216772972808
738506.44109239708632230759,-20.8455153050325,-10.607394634846,-301.281395916623
738506.44109248765744268894,-20.836283455916,-10.607394634846,-301.216772972808
738506.44109257811214774847,-20.817819757683,-10.5981627857295,-301.272164067507
738506.44109266856685280800,-20.7347331156346,-10.5612353892636,-301.29062776574
738506.44109275902155786753,-20.6885738700522,-10.5243079927976,-301.226004821925
738506.44109284959267824888,-20.7901242103336,-10.644322031312,-301.244468520157
738506.44109294004738330841,-20.6978057191687,-10.5704672383801,-301.235236671041
738506.44109303050208836794,-20.6978057191687,-10.5612353892636,-301.198309274575
738506.44109312095679342747,-20.6701101718192,-10.5520035401471,-301.142918179876
738506.44109321152791380882,-20.7255012665181,-10.5889309366131,-301.179845576342
738506.44109330198261886835,-20.7624286629841,-10.6350901821955,-301.216772972808
738506.44109339243732392788,-20.8824427014985,-10.644322031312,-301.216772972808
738506.44109348289202898741,-20.9470656453139,-10.6812494277779,-301.281395916623
738506.44109357346314936876,-20.9839930417798,-10.6812494277779,-301.355250709555
738506.44109366391785442829,-21.0578478347118,-10.7643360698263,-301.309091463973
738506.44109375437255948782,-21.0670796838282,-10.6997131260109,-301.327555162206
738506.44109384482726454735,-21.2055574205756,-10.8197271645253,-301.373714407788
738506.44109393539838492870,-21.1686300241096,-10.7735679189428,-301.327555162206
738506.44109402585308998823,-21.1778618732261,-10.8012634662923,-301.364482558672
738506.44109411630779504776,-21.1132389294107,-10.6720175786615,-301.346018860439
738506.44109420676250010729,-21.1778618732261,-10.7920316171758,-301.355250709555
738506.44109429733362048864,-21.2055574205756,-10.8197271645253,-301.318323313089
738506.44109438778832554817,-21.1963255714591,-10.8012634662923,-301.299859614856
738506.44109447824303060770,-21.1409344767602,-10.6904812768944,-301.346018860439
738506.44109456869773566723,-21.1870937223426,-10.7735679189428,-301.382946256905
738506.44109465915244072676,-21.1686300241096,-10.7551042207099,-301.382946256905
738506.44109474972356110811,-21.1963255714591,-10.7920316171758,-301.299859614856
738506.44109484017826616764,-21.1224707785272,-10.7274086733604,-301.346018860439
738506.44109493063297122717,-21.1593981749931,-10.7643360698263,-301.401409955138
738506.44109502108767628670,-21.233252967925,-10.8658864101077,-301.382946256905
738506.44109511165879666805,-21.1778618732261,-10.7735679189428,-301.364482558672
738506.44109520211350172758,-21.1409344767602,-10.7181768242439,-301.401409955138
738506.44109529256820678711,-21.1963255714591,-10.7643360698263,-301.401409955138
738506.44109538302291184664,-21.1778618732261,-10.7643360698263,-301.29062776574
738506.44109547359403222799,-21.1501663258766,-10.7181768242439,-301.401409955138
738506.44109556404873728752,-21.1593981749931,-10.7274086733604,-301.373714407788
738506.44109565450344234705,-21.2240211188086,-10.8012634662923,-301.29062776574
738506.44109574495814740658,-21.1963255714591,-10.7551042207099,-301.235236671041
738506.44109583552926778793,-21.1778618732261,-10.7458723715934,-301.26293221839
738506.44109592598397284746,-21.2794122135075,-10.8474227118748,-301.318323313089
738506.44109601643867790699,-21.2055574205756,-10.7458723715934,-301.346018860439
738506.44109610689338296652,-21.2147892696921,-10.7920316171758,-301.336787011322
738506.44109619746450334787,-21.2424848170415,-10.7551042207099,-301.281395916623
738506.44109628791920840740,-21.2240211188086,-10.7551042207099,-301.26293221839
738506.44109637837391346693,-21.1501663258766,-10.6997131260109,-301.281395916623
738506.44109646882861852646,-21.2609485152745,-10.7827997680593,-301.281395916623
738506.44109655939973890781,-21.1593981749931,-10.6997131260109,-301.244468520157
738506.44109664985444396734,-21.2609485152745,-10.8012634662923,-301.346018860439
738506.44109674030914902687,-21.251716666158,-10.7643360698263,-301.336787011322
738506.44109683076385408640,-21.2240211188086,-10.7920316171758,-301.355250709555
738506.44109692133497446775,-21.233252967925,-10.7920316171758,-301.299859614856
738506.44109701178967952728,-21.2424848170415,-10.7458723715934,-301.355250709555
738506.44109710224438458681,-21.2055574205756,-10.7366405224769,-301.346018860439
738506.44109719269908964634,-21.233252967925,-10.7643360698263,-301.309091463973
738506.44109728327021002769,-21.2424848170415,-10.7643360698263,-301.299859614856
738506.44109737372491508722,-21.2147892696921,-10.7274086733604,-301.309091463973
738506.44109746417962014675,-21.1778618732261,-10.7366405224769,-301.29062776574
738506.44109755463432520628,-21.1963255714591,-10.7366405224769,-301.272164067507
738506.44109764520544558764,-21.1870937223426,-10.6904812768944,-301.26293221839
738506.44109773566015064716,-21.251716666158,-10.8289590136418,-301.346018860439
738506.44109782611485570669,-21.1132389294107,-10.7181768242439,-301.382946256905
738506.44109791656956076622,-21.2055574205756,-10.7920316171758,-301.364482558672
738506.44109800714068114758,-21.1224707785272,-10.7551042207099,-301.327555162206
738506.44109809759538620710,-21.0670796838282,-10.7181768242439,-301.401409955138
738506.44109818805009126663,-21.0578478347118,-10.7181768242439,-301.419873653371
738506.44109827850479632616,-21.0393841364788,-10.7458723715934,-301.281395916623
738506.44109836907591670752,-20.9932248908963,-10.6535538804285,-301.355250709555
738506.44109845953062176704,-21.1317026276437,-10.7551042207099,-301.373714407788
738506.44109854998532682657,-21.233252967925,-10.7458723715934,-301.373714407788
738506.44109864044003188610,-21.2240211188086,-10.7366405224769,-301.281395916623
738506.44109873101115226746,-21.1778618732261,-10.6997131260109,-301.364482558672
738506.44109882146585732698,-21.3163396099734,-10.8012634662923,-301.410641804254
738506.44109891192056238651,-21.288644062624,-10.8197271645253,-301.410641804254
738506.44109900237526744604,-21.2424848170415,-10.6997131260109,-301.346018860439
738506.44109909294638782740,-21.2794122135075,-10.7366405224769,-301.382946256905
738506.44109918340109288692,-21.3255714590899,-10.7827997680593,-301.355250709555
738506.44109927385579794645,-21.288644062624,-10.7920316171758,-301.226004821925
738506.44109936431050300598,-21.2609485152745,-10.7366405224769,-301.244468520157
738506.44109945488162338734,-21.233252967925,-10.7274086733604,-301.336787011322
738506.44109954533632844687,-21.288644062624,-10.7366405224769,-301.318323313089
738506.44109963579103350639,-21.2978759117405,-10.6997131260109,-301.318323313089
738506.44109972624573856592,-21.251716666158,-10.607394634846,-301.327555162206
738506.44109981681685894728,-20.9562974944304,-10.5612353892636,-301.244468520157
738506.44109990727156400681,-20.4300820947905,-10.5981627857295,-301.226004821925
738506.44109999772626906633,-20.1992858668783,-10.8751182592242,-301.235236671041
738506.44110008818097412586,-20.7255012665181,-11.041291543321,-301.355250709555
738506.44110017875209450722,-21.722540971099,-11.041291543321,-301.438337351604
738506.44110026920679956675,-21.6302224799341,-10.7827997680593,-301.373714407788
738506.44110035966150462627,-21.3440351573229,-10.6904812768944,-301.309091463973
738506.44110045011620968580,-21.1593981749931,-10.6720175786615,-301.281395916623
738506.44110054068733006716,-21.1593981749931,-10.6997131260109,-301.327555162206
738506.44110063114203512669,-21.0947752311777,-10.6535538804285,-301.299859614856
738506.44110072159674018621,-21.1501663258766,-10.6997131260109,-301.299859614856
738506.44110081205144524574,-21.1963255714591,-10.7274086733604,-301.309091463973
738506.44110090262256562710,-21.1686300241096,-10.6997131260109,-301.272164067507
738506.44110099307727068663,-21.1224707785272,-10.662785729545,-301.253700369274
738506.44110108353197574615,-21.1593981749931,-10.7274086733604,-301.244468520157
738506.44110117398668080568,-21.1224707785272,-10.6904812768944,-301.207541123691
738506.44110126455780118704,-21.0578478347118,-10.6535538804285,-301.272164067507
738506.44110135501250624657,-21.1317026276437,-10.6812494277779,-301.226004821925
738506.44110144546721130610,-21.0763115329447,-10.6720175786615,-301.235236671041
738506.44110153592191636562,-21.1040070802942,-10.7181768242439,-301.226004821925
738506.44110162649303674698,-21.0763115329447,-10.6904812768944,-301.281395916623
738506.44110171694774180651,-21.0670796838282,-10.6812494277779,-301.253700369274
738506.44110180740244686604,-21.0024567400128,-10.6535538804285,-301.299859614856
738506.44110189785715192556,-21.0024567400128,-10.6535538804285,-301.29062776574
738506.44110198842827230692,-21.0209204382458,-10.6812494277779,-301.281395916623
738506.44110207888297736645,-20.9932248908963,-10.625858333079,-301.281395916623
738506.44110216933768242598,-20.9193700979644,-10.607394634846,-301.272164067507
738506.44110225979238748550,-20.9470656453139,-10.644322031312,-301.216772972808
738506.44110235036350786686,-20.9286019470809,-10.607394634846,-301.198309274575
738506.44110244081821292639,-20.8916745506149,-10.607394634846,-301.26293221839
738506.44110253127291798592,-20.8455153050325,-10.5796990874966,-301.253700369274
738506.44110262172762304544,-20.7808923612171,-10.5150761436811,-301.272164067507
738506.44110271218232810497,-20.7901242103336,-10.5889309366131,-301.26293221839
738506.44110280275344848633,-20.7255012665181,-10.5335398419141,-301.189077425459
738506.44110289320815354586,-20.5962553788873,-10.3950621051668,-301.096758934294
738506.44110298366285860538,-20.6978057191687,-10.5335398419141,-301.207541123691
738506.44110307411756366491,-20.7255012665181,-10.5796990874966,-301.253700369274
738506.44110316468868404627,-20.6793420209357,-10.5704672383801,-301.244468520157
738506.44110325514338910580,-20.6701101718192,-10.5243079927976,-301.189077425459
738506.44110334559809416533,-20.7070375682852,-10.5520035401471,-301.253700369274
738506.44110343605279922485,-20.8916745506149,-10.6720175786615,-301.281395916623
738506.44110352662391960621,-20.8916745506149,-10.625858333079,-301.226004821925
738506.44110361707862466574,-20.9932248908963,-10.6720175786615,-301.327555162206
738506.44110370753332972527,-21.0763115329447,-10.7089449751274,-301.309091463973
738506.44110379798803478479,-21.0393841364788,-10.607394634846,-301.299859614856
738506.44110388855915516615,-21.1224707785272,-10.7274086733604,-301.336787011322
738506.44110397901386022568,-21.1778618732261,-10.7643360698263,-301.401409955138
738506.44110406946856528521,-21.1870937223426,-10.7551042207099,-301.364482558672
738506.44110415992327034473,-21.1870937223426,-10.7366405224769,-301.318323313089
738506.44110425049439072609,-21.2055574205756,-10.7458723715934,-301.336787011322
738506.44110434094909578562,-21.1778618732261,-10.7551042207099,-301.346018860439
738506.44110443140380084515,-21.1963255714591,-10.8104953154088,-301.346018860439
738506.44110452185850590467,-21.1317026276437,-10.662785729545,-301.327555162206
738506.44110461242962628603,-21.1593981749931,-10.7089449751274,-301.355250709555
738506.44110470288433134556,-21.1409344767602,-10.6904812768944,-301.382946256905
738506.44110479333903640509,-21.1132389294107,-10.662785729545,-301.309091463973
738506.44110488379374146461,-21.1409344767602,-10.7366405224769,-301.364482558672
738506.44110497436486184597,-21.1686300241096,-10.7181768242439,-301.29062776574
738506.44110506481956690550,-21.1593981749931,-10.7366405224769,-301.244468520157
738506.44110515527427196503,-21.1963255714591,-10.7827997680593,-301.253700369274
738506.44110524572897702456,-21.1870937223426,-10.7274086733604,-301.226004821925
738506.44110533630009740591,-21.1593981749931,-10.7366405224769,-301.253700369274
738506.44110542675480246544,-21.1963255714591,-10.7458723715934,-301.26293221839
738506.44110551720950752497,-21.1686300241096,-10.7089449751274,-301.26293221839
738506.44110560766421258450,-21.2055574205756,-10.7827997680593,-301.281395916623
738506.44110569823533296585,-21.1593981749931,-10.6997131260109,-301.299859614856
738506.44110578869003802538,-21.1593981749931,-10.7181768242439,-301.29062776574
738506.44110587914474308491,-21.1963255714591,-10.7643360698263,-301.309091463973
738506.44110596959944814444,-21.2240211188086,-10.7827997680593,-301.299859614856
738506.44110606017056852579,-21.1778618732261,-10.7366405224769,-301.336787011322
738506.44110615062527358532,-21.1132389294107,-10.6997131260109,-301.336787011322
738506.44110624107997864485,-21.1963255714591,-10.7551042207099,-301.373714407788
738506.44110633153468370438,-21.233252967925,-10.7366405224769,-301.272164067507
738506.44110642210580408573,-21.1963255714591,-10.7551042207099,-301.189077425459
738506.44110651256050914526,-21.2240211188086,-10.7735679189428,-301.29062776574
738506.44110660301521420479,-21.2055574205756,-10.7643360698263,-301.281395916623
738506.44110669346991926432,-21.2424848170415,-10.7735679189428,-301.373714407788
738506.44110678404103964567,-21.2147892696921,-10.7274086733604,-301.309091463973
738506.44110687449574470520,-21.2240211188086,-10.7458723715934,-301.309091463973
738506.44110696495044976473,-21.251716666158,-10.8012634662923,-301.309091463973
738506.44110705540515482426,-21.1870937223426,-10.7089449751274,-301.327555162206
738506.44110714597627520561,-21.2240211188086,-10.7551042207099,-301.299859614856
738506.44110723643098026514,-21.233252967925,-10.7458723715934,-301.355250709555
738506.44110732688568532467,-21.2055574205756,-10.7827997680593,-301.364482558672
738506.44110741734039038420,-21.2424848170415,-10.7827997680593,-301.336787011322
738506.44110750791151076555,-21.251716666158,-10.7551042207099,-301.355250709555
738506.44110759836621582508,-21.1686300241096,-10.6720175786615,-301.346018860439
738506.44110768882092088461,-21.2147892696921,-10.7920316171758,-301.318323313089
738506.44110777927562594414,-21.1593981749931,-10.7366405224769,-301.373714407788
738506.44110786984674632549,-21.1870937223426,-10.7643360698263,-301.364482558672
738506.44110796030145138502,-21.1317026276437,-10.7551042207099,-301.392178106021
738506.44110805075615644455,-21.1132389294107,-10.7551042207099,-301.29062776574
738506.44110814121086150408,-21.0947752311777,-10.7551042207099,-301.346018860439
738506.44110823178198188543,-21.0578478347118,-10.7551042207099,-301.392178106021
738506.44110832223668694496,-21.0578478347118,-10.7274086733604,-301.327555162206
738506.44110841269139200449,-20.9839930417798,-10.6904812768944,-301.364482558672
738506.44110850314609706402,-21.1224707785272,-10.7735679189428,-301.382946256905
738506.44110859371721744537,-21.0855433820612,-10.6350901821955,-301.346018860439
738506.44110868417192250490,-21.2147892696921,-10.7274086733604,-301.309091463973
738506.44110877462662756443,-21.3163396099734,-10.8012634662923,-301.346018860439
738506.44110886508133262396,-21.270180364391,-10.7458723715934,-301.382946256905
738506.44110895565245300531,-21.288644062624,-10.7735679189428,-301.29062776574
738506.44110904610715806484,-21.2978759117405,-10.7920316171758,-301.29062776574
738506.44110913656186312437,-21.288644062624,-10.7920316171758,-301.29062776574
738506.44110922701656818390,-21.307107760857,-10.7827997680593,-301.26293221839
738506.44110931758768856525,-21.288644062624,-10.7551042207099,-301.253700369274
738506.44110940804239362478,-21.2794122135075,-10.7366405224769,-301.253700369274
738506.44110949849709868431,-21.2794122135075,-10.7458723715934,-301.29062776574
738506.44110958895180374384,-21.251716666158,-10.7274086733604,-301.309091463973
738506.44110967952292412519,-21.3440351573229,-10.7920316171758,-301.318323313089
738506.44110976997762918472,-21.3532670064394,-10.6904812768944,-301.299859614856
738506.44110986043233424425,-21.2240211188086,-10.644322031312,-301.26293221839
738506.44110995088703930378,-20.7439649647511,-10.5058442945647,-301.078295236061
738506.44111004145815968513,-20.4485457930235,-10.7181768242439,-301.244468520157
738506.44111013191286474466,-20.1900540177618,-10.9582049012726,-301.29062776574
738506.44111022236756980419,-21.1501663258766,-11.059755241554,-301.419873653371
738506.44111031282227486372,-21.8425550096133,-11.059755241554,-301.419873653371
738506.44111040327697992325,-21.5563676870022,-10.7458723715934,-301.392178106021
738506.44111049384810030460,-21.2055574205756,-10.6812494277779,-301.26293221839
738506.44111058430280536413,-21.1593981749931,-10.6997131260109,-301.29062776574
738506.44111067475751042366,-21.1593981749931,-10.7089449751274,-301.299859614856
738506.44111076521221548319,-21.251716666158,-10.7735679189428,-301.318323313089
738506.44111085578333586454,-21.2055574205756,-10.7458723715934,-301.336787011322
738506.44111094623804092407,-21.1778618732261,-10.7181768242439,-301.309091463973
738506.44111103669274598360,-21.1778618732261,-10.7366405224769,-301.299859614856
738506.44111112714745104313,-21.1686300241096,-10.6720175786615,-301.327555162206
738506.44111121771857142448,-21.1132389294107,-10.644322031312,-301.327555162206
738506.44111130817327648401,-21.1778618732261,-10.7089449751274,-301.299859614856
738506.44111139862798154354,-21.1593981749931,-10.7181768242439,-301.309091463973
738506.44111148908268660307,-21.1040070802942,-10.6812494277779,-301.346018860439
738506.44111157965380698442,-21.0947752311777,-10.6720175786615,-301.318323313089
738506.44111167010851204395,-21.1040070802942,-10.6904812768944,-301.355250709555
738506.44111176056321710348,-21.0947752311777,-10.6812494277779,-301.281395916623
738506.44111185101792216301,-21.0578478347118,-10.6535538804285,-301.309091463973
738506.44111194158904254436,-21.0301522873623,-10.644322031312,-301.29062776574
738506.44111203204374760389,-21.0301522873623,-10.662785729545,-301.309091463973
738506.44111212249845266342,-21.0116885891293,-10.644322031312,-301.281395916623
738506.44111221295315772295,-20.9839930417798,-10.6350901821955,-301.318323313089
738506.44111230352427810431,-20.9655293435469,-10.6166264839625,-301.29062776574
738506.44111239397898316383,-20.8824427014985,-10.5612353892636,-301.235236671041
738506.44111248443368822336,-20.9101382488479,-10.5796990874966,-301.29062776574
738506.44111257488839328289,-20.8916745506149,-10.5889309366131,-301.29062776574
738506.44111266545951366425,-20.854747154149,-10.5612353892636,-301.207541123691
738506.44111275591421872377,-20.8270516067995,-10.5612353892636,-301.253700369274
738506.44111284636892378330,-20.7624286629841,-10.5058442945647,-301.272164067507
738506.44111293682362884283,-20.6978057191687,-10.4596850489822,-301.207541123691
738506.44111302739474922419,-20.7070375682852,-10.4966124454482,-301.26293221839
738506.44111311784945428371,-20.7070375682852,-10.5335398419141,-301.179845576342
738506.44111320830415934324,-20.6424146244697,-10.4689168980987,-301.179845576342
738506.44111329875886440277,-20.7070375682852,-10.5335398419141,-301.124454481643
738506.44111338932998478413,-20.7162694174017,-10.5150761436811,-301.013672292245
738506.44111347978468984365,-20.7993560594501,-10.5520035401471,-301.13368633076
738506.44111357023939490318,-20.9286019470809,-10.644322031312,-301.207541123691
738506.44111366069409996271,-20.9932248908963,-10.6812494277779,-301.281395916623
738506.44111375126522034407,-21.0393841364788,-10.6812494277779,-301.309091463973
738506.44111384171992540359,-21.1132389294107,-10.7458723715934,-301.253700369274
738506.44111393217463046312,-21.1409344767602,-10.7643360698263,-301.299859614856
738506.44111402262933552265,-21.1409344767602,-10.7181768242439,-301.253700369274
738506.44111411320045590401,-21.1593981749931,-10.7366405224769,-301.226004821925
738506.44111420365516096354,-21.1963255714591,-10.7366405224769,-301.253700369274
738506.44111429410986602306,-21.1870937223426,-10.7551042207099,-301.299859614856
738506.44111438456457108259,-21.1778618732261,-10.7551042207099,-301.299859614856
738506.44111447513569146395,-21.1778618732261,-10.7643360698263,-301.253700369274
738506.44111456559039652348,-21.1963255714591,-10.7735679189428,-301.327555162206
738506.44111465604510158300,-21.0855433820612,-10.662785729545,-301.355250709555
738506.44111474649980664253,-21.1409344767602,-10.7366405224769,-301.364482558672
738506.44111483707092702389,-21.2055574205756,-10.8012634662923,-301.281395916623
738506.44111492752563208342,-21.1963255714591,-10.7827997680593,-301.346018860439
738506.44111501798033714294,-21.1593981749931,-10.7551042207099,-301.364482558672
738506.44111510843504220247,-21.1686300241096,-10.7458723715934,-301.392178106021
738506.44111519900616258383,-21.1224707785272,-10.7089449751274,-301.299859614856
738506.44111528946086764336,-21.1132389294107,-10.7089449751274,-301.355250709555
738506.44111537991557270288,-21.233252967925,-10.8104953154088,-301.346018860439
738506.44111547037027776241,-21.233252967925,-10.8197271645253,-301.346018860439
738506.44111556094139814377,-21.1686300241096,-10.7366405224769,-301.318323313089
738506.44111565139610320330,-21.1593981749931,-10.7274086733604,-301.327555162206
738506.44111574185080826283,-21.1778618732261,-10.7366405224769,-301.327555162206
738506.44111583230551332235,-21.2147892696921,-10.7827997680593,-301.355250709555
738506.44111592287663370371,-21.2055574205756,-10.7643360698263,-301.392178106021
738506.44111601333133876324,-21.1686300241096,-10.7274086733604,-301.29062776574
738506.44111610378604382277,-21.1778618732261,-10.7366405224769,-301.346018860439
738506.44111619424074888229,-21.1963255714591,-10.7643360698263,-301.336787011322
738506.44111628481186926365,-21.1870937223426,-10.7274086733604,-301.364482558672
738506.44111637526657432318,-21.2240211188086,-10.7735679189428,-301.327555162206
738506.44111646572127938271,-21.251716666158,-10.7920316171758,-301.373714407788
738506.44111655617598444223,-21.1963255714591,-10.7551042207099,-301.355250709555
738506.44111664674710482359,-21.2147892696921,-10.7827997680593,-301.29062776574
738506.44111673720180988312,-21.2240211188086,-10.7643360698263,-301.355250709555
738506.44111682765651494265,-21.2055574205756,-10.7551042207099,-301.346018860439
738506.44111691811122000217,-21.1593981749931,-10.7181768242439,-301.124454481643
738506.44111700868234038353,-21.2147892696921,-10.7551042207099,-301.26293221839
738506.44111709913704544306,-21.2794122135075,-10.8197271645253,-301.364482558672
738506.44111718959175050259,-21.1870937223426,-10.7274086733604,-301.336787011322
738506.44111728004645556211,-21.233252967925,-10.7735679189428,-301.281395916623
738506.44111737061757594347,-21.2609485152745,-10.8012634662923,-301.309091463973
738506.44111746107228100300,-21.233252967925,-10.7827997680593,-301.336787011322
738506.44111755152698606253,-21.233252967925,-10.7643360698263,-301.382946256905
738506.44111764198169112206,-21.233252967925,-10.7735679189428,-301.336787011322
738506.44111773255281150341,-21.2147892696921,-10.7551042207099,-301.327555162206
738506.44111782300751656294,-21.1686300241096,-10.7366405224769,-301.392178106021
738506.44111791346222162247,-21.1409344767602,-10.7089449751274,-301.382946256905
738506.44111800391692668200,-21.1778618732261,-10.7735679189428,-301.299859614856
738506.44111809437163174152,-21.1501663258766,-10.7643360698263,-301.364482558672
738506.44111818494275212288,-21.0855433820612,-10.7551042207099,-301.373714407788
738506.44111827539745718241,-21.0578478347118,-10.7366405224769,-301.299859614856
738506.44111836585216224194,-21.0393841364788,-10.7181768242439,-301.346018860439
738506.44111845630686730146,-21.0024567400128,-10.6812494277779,-301.318323313089
738506.44111854687798768282,-21.0301522873623,-10.6904812768944,-301.26293221839
738506.44111863733269274235,-21.2240211188086,-10.8012634662923,-301.309091463973
738506.44111872778739780188,-21.2055574205756,-10.7551042207099,-301.309091463973
738506.44111881824210286140,-21.233252967925,-10.7643360698263,-301.29062776574
738506.44111890881322324276,-21.2147892696921,-10.7274086733604,-301.299859614856
738506.44111899926792830229,-21.270180364391,-10.7827997680593,-301.309091463973
738506.44111908972263336182,-21.2609485152745,-10.7643360698263,-301.29062776574
738506.44111918017733842134,-21.233252967925,-10.7551042207099,-301.281395916623
738506.44111927074845880270,-21.288644062624,-10.7827997680593,-301.309091463973
738506.44111936120316386223,-21.307107760857,-10.8012634662923,-301.327555162206
738506.44111945165786892176,-21.251716666158,-10.7366405224769,-301.299859614856
738506.44111954211257398129,-21.251716666158,-10.7827997680593,-301.364482558672
738506.44111963268369436264,-21.2609485152745,-10.7735679189428,-301.272164067507
738506.44111972313839942217,-21.288644062624,-10.8104953154088,-301.26293221839
738506.44111981359310448170,-21.307107760857,-10.7551042207099,-301.309091463973
738506.44111990404780954123,-21.2609485152745,-10.6812494277779,-301.272164067507
738506.44111999461892992258,-20.9839930417798,-10.5704672383801,-301.29062776574
738506.44112008507363498211,-20.5131687368389,-10.644322031312,-301.244468520157
738506.44112017552834004164,-20.1715903195288,-10.8843501083407,-301.198309274575
738506.44112026598304510117,-20.836283455916,-11.1336100344859,-301.373714407788
738506.44112035655416548252,-21.6763817255165,-11.0505233924375,-301.502960295419
738506.44112044700887054205,-21.5379039887692,-10.7735679189428,-301.244468520157
738506.44112053746357560158,-21.2978759117405,-10.7366405224769,-301.216772972808
738506.44112062791828066111,-21.1778618732261,-10.7551042207099,-301.318323313089
738506.44112071848940104246,-21.1409344767602,-10.7366405224769,-301.355250709555
738506.44112080894410610199,-21.1501663258766,-10.7366405224769,-301.253700369274
738506.44112089939881116152,-21.1963255714591,-10.7551042207099,-301.364482558672
738506.44112098985351622105,-21.1778618732261,-10.7366405224769,-301.364482558672
738506.44112108042463660240,-21.1501663258766,-10.7274086733604,-301.327555162206
738506.44112117087934166193,-21.1224707785272,-10.6997131260109,-301.299859614856
738506.44112126133404672146,-21.1686300241096,-10.7735679189428,-301.281395916623
738506.44112135178875178099,-21.0947752311777,-10.7089449751274,-301.253700369274
738506.44112144235987216234,-21.1132389294107,-10.7274086733604,-301.226004821925
738506.44112153281457722187,-21.0947752311777,-10.7181768242439,-301.244468520157
738506.44112162326928228140,-21.0578478347118,-10.6904812768944,-301.226004821925
738506.44112171372398734093,-21.0578478347118,-10.6997131260109,-301.272164067507
738506.44112180429510772228,-21.0578478347118,-10.7274086733604,-301.327555162206
738506.44112189474981278181,-21.0301522873623,-10.6997131260109,-301.327555162206
738506.44112198520451784134,-21.0209204382458,-10.6904812768944,-301.299859614856
738506.44112207565922290087,-20.9932248908963,-10.6720175786615,-301.318323313089
738506.44112216623034328222,-20.9932248908963,-10.6720175786615,-301.189077425459
738506.44112225668504834175,-20.9193700979644,-10.6166264839625,-301.207541123691
738506.44112234713975340128,-20.9470656453139,-10.6535538804285,-301.244468520157
738506.44112243759445846081,-20.9286019470809,-10.644322031312,-301.244468520157
738506.44112252816557884216,-20.8916745506149,-10.625858333079,-301.226004821925
738506.44112261862028390169,-20.8270516067995,-10.5889309366131,-301.198309274575
738506.44112270907498896122,-20.8085879085665,-10.5612353892636,-301.216772972808
738506.44112279952969402075,-20.7901242103336,-10.5612353892636,-301.189077425459
738506.44112289010081440210,-20.7716605121006,-10.5520035401471,-301.198309274575
738506.44112298055551946163,-20.7255012665181,-10.5243079927976,-301.207541123691
738506.44112307101022452116,-20.7070375682852,-10.5335398419141,-301.179845576342
738506.44112316146492958069,-20.6424146244697,-10.4689168980987,-301.189077425459
738506.44112325203604996204,-20.6701101718192,-10.5243079927976,-301.216772972808
738506.44112334249075502157,-20.6793420209357,-10.5058442945647,-301.189077425459
738506.44112343294546008110,-20.6239509262368,-10.4689168980987,-301.207541123691
738506.44112352340016514063,-20.7255012665181,-10.5335398419141,-301.216772972808
738506.44112361397128552198,-20.7808923612171,-10.5796990874966,-301.26293221839
738506.44112370442599058151,-20.9101382488479,-10.6535538804285,-301.26293221839
738506.44112379488069564104,-20.9655293435469,-10.6812494277779,-301.216772972808
738506.44112388533540070057,-21.0024567400128,-10.6812494277779,-301.318323313089
738506.44112397590652108192,-21.0578478347118,-10.6997131260109,-301.170613727226
738506.44112406636122614145,-21.0393841364788,-10.6720175786615,-301.198309274575
738506.44112415681593120098,-21.1686300241096,-10.8289590136418,-301.281395916623
738506.44112424727063626051,-21.1132389294107,-10.7643360698263,-301.318323313089
738506.44112433784175664186,-21.1317026276437,-10.7458723715934,-301.309091463973
738506.44112442829646170139,-21.1317026276437,-10.7274086733604,-301.29062776574
738506.44112451875116676092,-21.1132389294107,-10.7458723715934,-301.309091463973
738506.44112460920587182045,-21.1317026276437,-10.7551042207099,-301.364482558672
738506.44112469977699220181,-21.0855433820612,-10.7274086733604,-301.318323313089
738506.44112479023169726133,-21.0301522873623,-10.6812494277779,-301.281395916623
738506.44112488068640232086,-21.0486159855953,-10.7089449751274,-301.309091463973
738506.44112497114110738039,-21.0855433820612,-10.7274086733604,-301.244468520157
738506.44112506171222776175,-21.1317026276437,-10.7551042207099,-301.198309274575
738506.44112515216693282127,-21.0855433820612,-10.7366405224769,-301.226004821925
738506.44112524262163788080,-21.1409344767602,-10.7643360698263,-301.253700369274
738506.44112533307634294033,-21.0855433820612,-10.7643360698263,-301.216772972808
738506.44112542364746332169,-21.0763115329447,-10.7089449751274,-301.299859614856
738506.44112551410216838121,-21.1224707785272,-10.7920316171758,-301.327555162206
738506.44112560455687344074,-21.1040070802942,-10.7366405224769,-301.327555162206
738506.44112569501157850027,-21.1132389294107,-10.7458723715934,-301.299859614856
738506.44112578558269888163,-21.1317026276437,-10.7735679189428,-301.336787011322
738506.44112587603740394115,-21.1224707785272,-10.7643360698263,-301.355250709555
738506.44112596649210900068,-21.1409344767602,-10.7920316171758,-301.299859614856
738506.44112605694681406021,-21.1132389294107,-10.7551042207099,-301.309091463973
738506.44112614740151911974,-21.1132389294107,-10.7181768242439,-301.355250709555
738506.44112623797263950109,-21.1593981749931,-10.7735679189428,-301.382946256905
738506.44112632842734456062,-21.1870937223426,-10.8104953154088,-301.373714407788
738506.44112641888204962015,-21.1686300241096,-10.7920316171758,-301.364482558672
738506.44112650933675467968,-21.1409344767602,-10.7551042207099,-301.355250709555
738506.44112659990787506104,-21.1593981749931,-10.7643360698263,-301.29062776574
738506.44112669036258012056,-21.2147892696921,-10.8197271645253,-301.336787011322
738506.44112678081728518009,-21.2055574205756,-10.8012634662923,-301.26293221839
738506.44112687127199023962,-21.1501663258766,-10.7643360698263,-301.272164067507
738506.44112696184311062098,-21.1593981749931,-10.7551042207099,-301.309091463973
738506.44112705229781568050,-21.1593981749931,-10.7827997680593,-301.26293221839
738506.44112714275252074003,-21.1686300241096,-10.7827997680593,-301.253700369274
738506.44112723320722579956,-21.2055574205756,-10.8289590136418,-301.299859614856
738506.44112732377834618092,-21.1409344767602,-10.7274086733604,-301.355250709555
738506.44112741423305124044,-21.1224707785272,-10.7274086733604,-301.207541123691
738506.44112750468775629997,-21.2147892696921,-10.8289590136418,-301.235236671041
738506.44112759514246135950,-21.1224707785272,-10.7458723715934,-301.235236671041
738506.44112768571358174086,-21.1409344767602,-10.7827997680593,-301.336787011322
738506.44112777616828680038,-21.2424848170415,-10.8474227118748,-301.281395916623
738506.44112786662299185991,-21.2147892696921,-10.8197271645253,-301.327555162206
738506.44112795707769691944,-21.1224707785272,-10.7458723715934,-301.346018860439
738506.44112804764881730080,-21.0947752311777,-10.7643360698263,-301.244468520157
738506.44112813810352236032,-21.1870937223426,-10.8104953154088,-301.336787011322
738506.44112822855822741985,-21.0947752311777,-10.7827997680593,-301.327555162206
738506.44112831901293247938,-20.9932248908963,-10.6997131260109,-301.216772972808
738506.44112840958405286074,-21.0393841364788,-10.7920316171758,-301.253700369274
738506.44112850003875792027,-21.0301522873623,-10.7827997680593,-301.244468520157
738506.44112859049346297979,-21.0116885891293,-10.7735679189428,-301.216772972808
738506.44112868094816803932,-20.9747611926634,-10.7551042207099,-301.207541123691
738506.44112877151928842068,-20.9193700979644,-10.662785729545,-301.244468520157
738506.44112886197399348021,-21.0578478347118,-10.7643360698263,-301.29062776574
738506.44112895242869853973,-21.1778618732261,-10.8197271645253,-301.299859614856
738506.44112904288340359926,-21.1501663258766,-10.7827997680593,-301.26293221839
738506.44112913345452398062,-21.2240211188086,-10.8197271645253,-301.309091463973
738506.44112922390922904015,-21.1963255714591,-10.8104953154088,-301.318323313089
738506.44112931436393409967,-21.2240211188086,-10.7735679189428,-301.26293221839
